Channel_1,Channel_2,Channel_3,Channel_4,Channel_5,Channel_6,Channel_7,Channel_8
1,-24,-45,-4,-8,-9,-4,-4
-36,-9,86,42,-14,-13,-10,-108
-87,14,-1,-1,0,-5,-8,-6
11,18,29,16,0,-3,28,29
14,22,54,18,-1,3,-4,-23
7,6,22,76,19,0,-15,6
5,-13,-43,-59,1,1,-10,-9
6,1,39,-70,-5,7,6,11
11,11,20,11,-9,1,18,60
26,-2,-35,7,-1,-5,18,19
-8,-7,3,11,12,10,-6,-39
-9,-20,21,-9,-7,-11,-14,22
9,21,24,-16,5,0,3,10
4,17,-4,-4,-10,0,5,11
0,-9,-26,-33,-13,0,0,0
0,-10,19,16,-4,-7,2,0
-11,-7,6,22,-1,1,-3,2
6,-11,-27,-23,-1,4,1,0
8,20,38,-36,21,16,10,13
-9,-32,-88,-26,-6,-6,-8,-6
-13,-1,-18,-11,-13,-6,-9,-12
-2,8,26,39,2,2,1,-1
26,55,-42,2,0,-6,10,59
6,54,37,29,-5,1,11,8
-19,-116,-12,0,-2,-7,-15,-26
-4,11,40,-7,0,-5,-1,3
0,8,0,69,12,2,-1,5
1,-11,-128,-118,-10,-1,-2,4
-29,-32,-23,-18,1,-2,2,-4
3,-20,-7,-122,-8,-7,-6,-3
11,13,7,-7,-14,-2,0,1
7,6,4,-2,4,4,0,6
3,5,3,56,1,-4,-2,23
15,24,4,-7,3,3,10,-5
-12,2,-7,36,0,1,-1,20
39,9,34,78,12,1,-28,-32
-59,19,-7,-8,-1,5,-3,-79
-45,27,48,31,-2,-11,-5,-13
-59,3,-37,-37,-17,-7,5,35
55,-86,-99,31,-9,-14,-8,-81
-13,4,34,127,14,-4,-11,-29
8,26,21,-128,-8,-1,1,-1
9,25,-41,-128,-33,-8,5,32
-12,31,71,-5,-1,0,-2,-97
-5,-6,-23,16,9,0,1,-9
6,11,-11,43,4,0,-11,10
7,42,6,-13,-9,-10,-24,-11
-7,-58,-19,-36,-13,-6,6,-7
-3,-20,43,-117,1,4,-3,-11
-5,15,-34,-55,-21,-8,0,-5
7,14,16,2,1,7,1,6
4,12,-55,-11,-1,-5,1,13
9,-5,68,10,0,0,-3,8
12,2,-66,-39,-2,1,2,0
-31,-24,-36,3,-10,-6,2,24
-3,9,75,15,7,2,-6,-22
58,-9,-91,-33,-8,-1,4,16
7,21,101,49,0,-7,-20,-11
-6,10,50,0,-7,-3,-1,7
5,5,-9,-29,-7,1,2,5
9,52,-18,-30,9,2,-1,5
4,22,4,32,12,1,2,1
0,3,-7,-19,-10,3,-1,5
0,8,15,-7,-5,-2,-1,-8
-2,10,34,25,-2,-3,-6,-2
-7,-36,-97,-11,-6,-6,-2,0
-6,6,14,-13,4,-2,-5,-9
-16,-19,-51,-21,-14,-14,-14,1
7,13,12,10,16,8,8,1
-9,-7,3,9,5,4,-1,-6
2,-6,-3,-2,-1,1,-4,14
-9,-4,3,8,1,-1,-2,-9
4,6,7,12,0,-5,1,1
-1,41,36,-13,-9,-4,1,-9
-6,-5,-2,-19,-1,3,-3,-5
3,11,7,13,-6,-3,-1,3
-5,-3,-14,0,-7,-9,-8,-9
-7,-7,11,1,-1,-2,-3,-4
-7,-8,-45,-10,0,-2,-8,-13
9,4,-46,0,0,2,7,26
0,3,-8,-19,-1,-1,-4,-1
1,-10,83,26,-3,-4,2,-2
-2,-34,19,6,-2,-4,-2,-3
3,-19,48,13,5,6,7,11
6,35,-55,0,0,-2,-1,-7
0,-10,-38,-20,-10,-2,-3,10
-4,-5,-17,-1,1,1,-1,-1
-5,-1,37,1,-4,-3,-6,-2
3,7,9,1,0,1,3,2
0,-5,-3,1,10,6,3,-9
5,3,-38,-27,-1,2,3,4
4,14,123,43,0,0,-6,-2
0,-3,-30,-11,-6,-4,3,1
-17,-37,-128,-43,-10,-12,-12,-18
0,3,-33,-9,0,-5,-2,7
6,25,66,26,1,-1,3,-2
-5,-40,-11,14,4,0,3,1
3,-9,-36,-27,-6,-3,-4,26
4,31,7,-10,-7,4,6,7
-5,-61,1,4,12,2,2,-14
-2,9,18,-3,-6,-2,1,13
6,13,5,5,3,8,13,-14
10,13,2,2,-2,-5,-7,5
17,-1,42,5,0,-4,0,23
-30,-37,-56,-34,-6,-6,-11,-11
1,-3,-48,6,3,1,0,-1
4,2,6,17,-1,-5,0,28
-14,-2,-6,3,-1,-2,-2,-13
14,7,14,22,2,-1,-2,3
5,77,19,-14,9,7,5,6
-17,-51,30,-12,-7,-2,-2,-4
-19,-11,2,-11,-10,-10,-8,-17
3,-6,-51,-1,0,-2,19,112
4,-6,-41,-4,2,3,-16,-78
16,12,20,-3,-3,-1,-13,75
-19,12,-5,2,0,-1,5,-93
-9,-47,49,11,-11,-7,-18,-21
-2,-10,-82,-46,-3,3,7,52
16,14,127,-3,0,0,-7,-95
-9,6,-58,12,-3,3,42,127
-89,8,6,35,-1,-13,-66,-128
-28,-90,1,-9,-5,-8,-14,27
5,-4,-7,-13,-2,-1,12,26
9,0,-2,2,-3,-4,0,17
10,7,-9,-15,-1,-1,8,10
7,10,20,21,-3,-2,1,-7
0,9,16,-21,-7,-3,-3,-8
7,5,15,-10,0,-1,1,-10
-5,-2,-45,-18,-6,-2,-3,-15
-4,-6,8,14,-1,0,-6,-3
0,1,-14,6,6,1,3,-23
-7,-10,-45,-42,-16,-6,-4,9
4,11,-4,11,3,0,1,-58
4,37,21,6,-9,-2,-12,8
6,-8,9,-7,0,1,10,79
-11,-18,-128,-35,-7,1,17,-81
-8,-106,-8,-30,1,-6,-29,-25
1,45,80,48,-5,-8,-6,8
32,9,19,47,6,5,6,-22
-24,42,86,21,-2,0,3,27
57,-41,-91,-69,-9,-4,10,69
-50,-32,-10,54,12,2,-11,-34
2,21,3,-18,-3,4,2,15
10,0,118,-87,-6,1,8,37
-60,-9,-40,35,-8,-8,-5,69
-6,-14,-8,3,0,-3,-8,-128
10,3,-39,-16,-9,-7,-9,-15
13,4,16,53,14,-1,1,6
-3,-2,-27,-7,5,9,3,12
12,7,15,-20,-4,11,10,35
-5,-3,12,16,-2,-3,-3,-9
26,34,4,67,9,2,20,125
9,35,14,-32,-10,-7,-6,-42
-32,-69,27,-128,-22,-9,-21,-53
-22,52,11,44,1,-7,-6,-14
8,-85,-32,22,6,2,0,86
-29,3,0,-12,-9,-12,-15,-47
40,3,-128,-97,-16,6,13,33
-14,14,19,-38,7,7,20,-2
27,7,127,127,-4,-18,-28,-52
-33,46,-36,83,1,-1,-41,-86
20,-4,-11,-7,0,5,14,29
8,-10,-68,-47,-7,-7,-7,1
-1,10,20,-16,3,6,7,9
5,-11,-60,-12,6,4,2,57
1,-12,3,-40,3,4,-5,-57
14,10,56,45,8,6,18,36
-15,-16,-41,-59,-3,-5,-10,-53
-6,-1,48,65,-9,-11,-5,49
18,86,54,-39,-6,0,-7,4
-25,-48,-45,-21,8,1,-16,-105
-25,-27,66,27,-11,-6,5,53
76,45,117,0,6,7,26,66
-65,1,-128,0,-8,-10,-39,-23
5,6,-19,-60,-14,-5,4,-18
-1,8,51,36,3,1,-1,15
0,-14,41,-13,-9,-9,-2,78
13,7,-7,-31,3,1,3,-3
4,6,127,122,-1,-15,-3,5
3,37,125,93,10,4,2,15
-4,-11,-41,-16,2,2,3,1
6,-32,-128,-114,-13,-2,-5,-39
4,-14,-63,-86,-21,-7,-10,8
-11,-10,-51,-83,-3,2,4,4
-14,26,127,66,-4,-10,-6,0
11,1,23,127,15,9,18,64
61,-21,-15,-74,-19,-17,-21,23
-72,7,21,10,3,3,-10,15
-16,22,19,1,-11,-13,-21,-111
-48,3,-7,0,-5,2,4,31
9,-26,-128,-44,-4,0,2,-9
-7,-41,-92,-106,-4,0,-4,-37
16,23,127,127,-5,-12,-12,11
1,-60,34,79,-2,-7,-6,-8
19,20,-13,-43,-1,1,7,14
9,12,34,-7,0,1,3,9
-21,-8,-25,-10,-2,-7,0,9
-1,-6,-40,-59,-10,1,0,-30
5,3,6,16,12,8,-11,0
18,0,-10,-79,-8,-4,0,32
-8,1,8,47,-7,-5,-1,-9
0,3,-38,-21,-4,-4,3,18
-3,18,61,22,-2,1,1,-30
6,31,103,71,8,3,7,-29
-20,-33,14,8,-3,-8,-28,-120
0,62,-25,4,11,6,8,20
-43,-118,-3,-29,-11,-13,-12,-7
-1,-23,-41,-21,-5,-2,-6,0
5,12,10,-11,-4,2,0,0
4,17,7,5,8,4,15,18
5,6,-71,-16,2,5,-20,-27
2,5,-26,-31,3,-2,1,2
2,-1,26,53,-3,-10,2,46
30,21,-38,-2,6,5,3,-36
-29,13,-22,-31,-7,2,7,34
-6,24,98,60,6,-9,-14,-36
8,31,122,54,1,1,-4,24
26,2,-24,8,6,-2,-4,-5
-74,-25,-91,-28,-8,-6,3,49
-49,-23,-95,-47,-5,3,28,-5
27,-67,-29,-54,-19,-14,-57,-128
-17,41,47,80,10,0,2,42
27,4,1,-9,-2,-3,-4,13
9,-2,27,13,8,5,1,0
-29,13,-13,11,-1,0,0,-1
2,-12,-17,-30,-10,0,0,2
12,15,-27,-28,0,2,1,37
1,9,24,10,-3,-5,-11,-128
-6,-62,-36,-15,-7,-1,1,-11
-7,30,4,27,2,-6,-7,-21
21,22,75,22,0,-1,3,8
-37,-33,-114,-5,-5,-4,-8,-11
1,5,-25,-20,-8,-1,1,2
9,-3,-14,-20,-4,-1,3,64
-9,-6,-31,-18,-8,-9,-6,-27
0,21,-21,14,20,7,6,13
3,-14,75,18,3,2,-6,17
14,0,17,-31,-4,1,10,-9
4,-19,5,9,4,0,-4,17
-3,9,-16,35,-10,-6,-2,14
-33,-13,-114,-33,-9,2,-5,-43
-4,8,69,-11,-10,-5,-2,-3
-20,-31,82,20,-2,-7,-3,-14
4,10,-19,-77,-1,2,11,26
33,45,-3,53,13,2,-1,23
-3,-27,21,64,4,1,4,65
-6,7,-59,-69,-4,1,-13,-106
-4,20,-4,-11,-6,0,-4,2
1,-10,-22,14,0,-1,-1,4
8,-4,25,26,-2,-2,3,6
18,15,-40,-37,-9,0,24,83
-39,-10,10,39,6,0,-25,-71
10,-33,-6,-10,-1,5,6,0
7,-5,-70,-60,-8,-2,2,26
19,5,38,47,1,-3,-6,-22
-19,-8,71,59,0,-10,-13,-2
-28,-9,32,-6,-16,-22,-12,14
-1,3,-1,-13,3,2,11,2
17,41,20,8,7,5,-1,3
11,-46,-48,-48,-10,2,13,99
-26,14,-31,-2,-1,0,-18,-128
12,-31,-28,-54,-19,-13,-8,38
-16,13,-73,13,9,-2,-3,-39
17,11,-74,-44,-7,8,4,7
-23,-22,124,18,-21,-14,-8,-10
-3,7,43,55,7,-6,10,6
5,13,62,84,1,0,5,12
-13,4,-59,-42,-1,0,-32,-101
3,12,46,34,5,3,-1,3
6,4,-52,-42,-4,-5,1,2
2,-7,-48,-12,-6,-5,-4,-2
5,-16,-22,-10,-3,0,1,-10
2,32,28,13,5,2,0,12
9,-19,-21,-46,-5,0,18,127
-9,19,19,-19,-12,-7,-20,-53
-13,-13,-72,1,-2,2,-1,-16
24,39,54,0,7,8,3,1
-18,-74,-48,50,-9,-9,-10,-15
8,-20,-55,-17,4,0,9,70
-4,-7,12,18,2,2,-10,-125
-5,15,-5,4,-2,-4,-6,-5
58,35,-5,-36,-1,11,23,83
-54,-24,-38,-1,-1,-4,-12,20
-55,-56,-71,-44,-12,-10,-27,-15
-2,15,48,25,-4,-3,22,26
12,6,3,7,-6,-4,-25,-29
16,9,-9,2,2,-1,1,-7
3,42,-5,-25,0,3,9,15
13,-10,-11,47,10,7,15,-31
4,-18,-63,-13,-1,1,-6,-6
2,-14,5,-128,-8,-5,-7,1
-2,13,1,100,-13,-8,0,-3
2,42,113,75,4,7,6,3
-8,-25,-42,-44,-7,-2,4,-4
9,28,15,-36,-14,-6,-9,1
-5,-25,10,5,-5,-3,4,5
-5,-36,17,-11,3,0,0,1
0,10,26,45,3,-2,-4,-8
3,-21,-128,-48,-9,-3,1,-4
-1,-18,28,-20,-2,3,-1,31
2,44,-51,43,-4,-3,-2,-2
3,1,3,-51,-3,-2,-1,15
6,6,64,25,0,-2,1,-22
-38,-30,-6,9,-6,-5,-3,-105
40,33,0,-2,4,2,-5,-4
-19,-103,-62,-13,-2,-1,0,38
1,-9,-11,45,1,-1,-1,-21
9,16,-12,-35,-8,-4,-1,7
10,14,-26,-20,1,-2,4,14
2,8,21,-2,1,2,-1,2
13,2,-67,-44,-4,-5,-1,-10
-35,14,108,49,-12,-14,-13,2
-2,-3,33,1,0,-3,-5,-4
0,-1,-36,21,4,1,8,8
2,-5,-29,-19,6,4,-6,-24
0,1,-39,-27,-3,1,-4,-33
7,27,23,10,2,1,1,4
23,0,-9,40,8,7,42,127
-58,-91,-128,-112,-19,-19,-88,-128
-8,-14,-27,-10,-7,0,-2,44
2,-13,-47,-47,5,7,7,27
11,0,61,46,-2,-4,3,25
16,36,69,41,3,-1,0,2
-22,-45,-55,-37,-4,-2,0,8
3,11,41,22,0,0,4,-20
-19,2,66,34,1,-6,-2,-5
2,2,-11,-5,0,-2,-2,1
0,-33,-44,22,-1,0,0,-11
8,19,-29,-68,4,6,5,-5
4,17,15,3,-1,2,21,10
19,-17,-63,-19,-13,-8,-24,-76
-42,-12,10,31,-9,-9,-18,-21
56,6,3,40,-1,3,9,49
-23,-18,0,-14,-5,-6,0,-10
6,6,-25,-21,-3,0,-5,-4
3,-21,-15,1,-1,0,2,7
9,26,14,-50,1,-6,-2,0
-6,-53,-2,14,-1,-1,3,-8
-4,-16,3,30,-6,-10,-1,63
-22,-68,-93,-62,-15,-10,-9,-81
7,41,6,-36,0,4,4,26
4,11,-28,11,5,3,0,-45
-7,-5,-68,-13,0,-1,-11,-32
7,-2,127,22,8,4,4,3
-1,37,115,68,4,-1,-2,1
-12,-41,-113,-51,-9,-11,-7,10
4,3,34,2,-9,1,6,18
0,-19,-23,2,11,8,7,-40
3,-6,-56,2,0,0,0,1
8,3,-28,3,4,0,7,12
12,28,-5,4,9,3,-1,0
-15,-90,-23,-9,-4,-4,-17,-9
-1,36,5,22,-5,-4,1,-6
-7,-64,42,-11,-6,1,-2,1
3,27,20,-15,-4,-1,1,-1
-2,1,-27,-15,-4,6,13,125
-13,-43,-91,-27,-6,0,-7,-30
8,8,-49,0,5,2,0,16
21,-4,-26,-5,4,6,9,31
-9,21,116,-13,-17,-20,-38,-70
23,5,56,66,0,-3,14,5
-76,29,37,50,5,-3,-24,-127
11,22,19,-11,-4,0,1,34
-4,-29,-57,-30,-1,2,16,6
4,-6,17,-9,-5,-5,-21,-33
1,-32,2,-15,1,3,6,19
-1,-2,-2,6,1,0,-5,-20
7,31,8,-73,0,3,9,9
-3,35,0,77,5,-1,-3,-36
-25,-31,40,12,-10,-9,-7,-9
-7,6,29,23,-3,-2,1,-9
3,-33,-11,-5,2,0,2,12
10,8,-34,-65,-2,1,2,6
1,8,-15,-16,0,0,1,2
-4,16,32,61,4,0,-2,-3
12,14,52,34,0,2,3,6
0,-2,1,-56,-3,5,6,8
1,-4,-11,-25,-4,-7,-5,-67
4,-2,-20,-9,-13,-11,-11,-25
-40,3,-18,-8,3,4,-8,-48
22,19,5,-33,-1,8,31,110
7,18,62,55,-1,-5,-15,8
2,-15,19,17,-2,-5,0,5
6,-2,-30,-20,1,-4,3,10
-15,-59,-80,-30,-16,-13,-12,-7
-12,-18,58,82,1,-8,-10,-12
7,46,77,-64,-8,-8,-2,20
-24,-5,-79,-33,-3,-4,-5,-14
-9,-93,20,42,-9,-10,-7,7
10,10,-28,-31,0,7,8,6
-3,26,35,30,3,1,-2,4
16,23,-36,-30,-3,7,12,15
-5,-15,13,-31,-13,-13,-2,-22
31,19,57,52,15,2,-8,126
-69,-4,-3,35,-5,-4,-11,-99
6,1,-27,-38,-6,2,5,57
-2,-12,51,-4,3,-1,5,-5
-2,-1,47,32,-5,-8,1,51
-6,2,-22,-6,-3,-2,-4,-21
7,7,-28,-14,3,4,2,66
-33,-30,19,-26,3,-2,-19,-128
3,-15,-30,50,4,-2,-4,2
4,-7,-71,-12,-2,-10,-5,-7
2,37,43,15,-4,-4,1,-5
-6,-41,-22,-60,-5,3,1,-2
-5,-9,-39,-65,-10,-3,-1,-12
4,11,21,-7,0,4,1,-11
8,11,8,4,1,0,-3,5
5,26,59,10,-2,-3,1,62
-3,0,-44,-49,-8,-6,-17,-128
-1,1,8,21,-5,-5,1,10
7,27,35,49,0,-2,-4,-2
0,-20,-26,12,-2,-2,0,-6
-36,7,-10,-33,-4,0,-5,15
7,14,61,26,3,2,12,2
2,-97,1,10,-1,-2,-1,52
-53,-24,-36,-43,-5,-4,21,5
44,11,-41,-11,-13,-14,-24,-7
-76,-12,7,15,-5,-4,2,63
1,25,102,51,-7,-5,0,-2
22,44,-91,-29,1,3,5,39
-22,-66,34,19,-4,-11,-13,-27
-3,-22,4,4,-4,-3,0,24
6,4,-57,-26,0,2,2,8
3,18,8,-56,-7,-5,-4,9
1,1,-20,-16,-3,-1,-2,-39
-2,0,-7,-2,-1,-4,-1,-4
0,15,41,34,1,5,7,13
34,-4,10,38,12,6,4,2
-10,19,36,31,-6,-8,-13,-100
-38,28,32,-18,-4,1,15,57
-16,3,-12,-2,-15,-18,-45,-42
19,-1,-43,40,5,2,2,8
-25,3,-25,-64,5,6,6,11
9,14,10,-24,1,4,9,10
21,-25,52,-7,-1,3,3,-29
-5,7,-18,47,0,-4,-4,-23
6,28,58,30,7,3,4,1
-10,-62,-101,-19,-7,-6,-8,1
6,3,-24,-43,-8,-1,7,66
2,4,55,20,-1,-6,-2,46
2,14,54,58,6,-1,7,53
9,23,36,16,2,2,-3,-64
-22,-2,-14,-5,1,4,9,-3
0,-38,-90,-44,-5,-1,-4,5
-8,-31,-76,-66,-1,4,2,9
0,69,114,25,-9,-7,-6,-5
-2,-16,21,42,5,-2,0,6
8,11,-43,-45,3,2,5,-4
5,9,49,8,1,-1,4,29
23,1,14,-4,-1,-3,0,30
-54,0,30,29,1,2,2,-13
16,9,-41,-19,-1,8,11,12
-12,-14,-20,-42,-10,0,0,5
8,16,-8,2,-1,-3,4,57
-3,-37,-73,1,1,-4,-5,0
-8,-9,52,13,0,-3,3,0
14,-1,24,39,-7,-5,-9,3
-9,-44,-45,-32,-7,-2,1,11
2,7,9,-5,4,-2,-1,32
14,11,14,19,3,6,15,80
-9,6,-14,-14,-5,1,-11,-128
0,7,0,-20,1,-2,-1,-15
-10,-2,-26,-1,-2,-7,-9,16
-16,-24,15,-25,-7,-7,3,-1
49,15,5,8,2,-3,-4,42
-20,-3,-52,18,1,0,3,16
9,19,29,-12,4,5,14,36
-9,12,22,13,-4,-4,-34,-119
20,44,59,-65,-1,1,3,28
-3,-24,-79,33,-8,-9,-7,4
22,12,-9,6,8,7,2,16
-1,-38,-91,-19,-9,-7,-2,-89
-7,-6,-21,10,-13,-8,-5,-7
4,5,37,-5,4,2,9,5
0,-25,4,-11,0,-5,-14,2
3,42,29,38,1,-3,-1,-8
15,-128,-119,-25,-9,-4,-2,16
-40,0,32,-1,-14,-9,-13,-93
17,17,-18,13,-1,4,8,-2
5,16,19,-19,-4,-4,6,21
-7,-29,-20,-33,-4,-3,-9,-15
6,3,34,44,7,1,0,9
-4,3,25,16,-6,-3,-2,-4
4,-2,15,1,-1,-1,-2,4
-1,-4,-20,10,2,-6,-1,-3
6,6,35,4,-4,1,1,1
-1,-6,-101,-28,-9,-5,-2,-5
-8,1,-28,4,3,2,2,-8
0,0,-30,12,2,-2,-7,-4
-3,-31,55,-34,-4,1,0,2
39,-2,-23,-59,-10,1,17,127
-17,41,99,49,-1,-8,-3,-5
0,-46,-126,-27,3,-2,-21,-10
26,22,22,58,0,-5,-12,-9
-35,49,78,27,13,5,10,13
-7,-77,-23,-36,-19,-10,-14,3
22,-44,-66,-11,3,0,11,39
2,-1,-17,-32,-8,-4,-4,-9
2,29,35,5,0,2,5,-1
8,31,-78,14,5,3,4,11
11,19,-11,-61,-3,-3,-1,2
-21,-12,13,-8,-13,-5,-4,-15
-4,-60,4,65,1,-4,-2,9
-2,9,46,-8,-6,-4,-6,-23
11,3,-7,3,0,-4,-2,12
0,-3,-17,-7,-3,-6,0,-15
8,15,-13,3,1,-4,0,24
-7,15,34,29,7,2,-6,-55
-9,-24,-72,-33,-14,-5,0,6
-2,-25,-74,-52,-12,-2,0,-5
7,12,-17,-10,1,0,4,2
-4,18,50,50,4,-4,6,8
2,-32,4,16,0,-4,18,51
-15,-8,-75,-98,-8,-7,-24,11
-1,30,-11,-6,-7,0,8,31
10,-4,-24,-42,-6,-3,-4,8
-12,-48,40,100,3,-8,-6,35
8,22,-3,23,4,1,0,1
14,-11,38,-9,0,2,6,32
-43,-7,-47,-23,-11,-3,1,-45
4,17,5,-22,-4,-2,4,1
15,8,-44,-32,7,2,13,23
-6,-7,-57,-2,4,1,-9,-20
-7,0,-12,20,-3,-6,-3,22
4,21,-7,-15,-3,1,0,3
4,-9,-78,-79,-7,-2,-1,6
9,10,71,25,1,2,4,10
33,2,61,123,11,-3,2,24
-66,-39,-13,1,1,-2,-11,-43
-9,-18,-53,-19,2,-1,-1,-8
3,8,-9,-28,0,-1,3,-13
8,-69,-12,-12,2,5,5,9
-2,-1,-16,6,-1,-5,-11,11
17,8,-16,-3,-4,2,-2,-2
8,-1,-22,-30,9,8,23,3
-6,35,69,39,-6,-9,-48,38
-8,34,110,57,0,-6,-3,-6
-26,-101,-110,-95,-19,-9,-5,-11
6,-5,-23,-68,-1,1,4,2
-4,-5,70,102,9,-3,1,-7
8,3,-57,9,-4,0,6,93
-18,1,-47,-45,-14,-2,-13,-128
-4,-4,10,-38,-5,-6,4,-16
-43,4,-33,-3,-4,0,0,-15
2,2,27,9,6,2,-3,17
0,-33,-29,-4,-6,-3,0,0
0,34,12,3,6,2,1,17
-6,-4,17,-5,-2,-3,-4,-4
9,-3,-33,-3,-1,-1,1,1
2,-7,44,-10,-9,-9,-9,-1
3,-4,-27,12,-3,-4,-5,-8
-13,-24,-60,-29,-4,2,-3,-6
-6,18,127,112,7,-5,-7,-4
-17,-106,-57,18,-3,-2,-7,-103
3,-4,-36,-76,-7,1,-1,-19
4,29,-26,-28,4,5,3,16
6,39,1,40,5,0,2,-11
-21,-120,-117,-51,-10,-8,-3,-11
-11,-25,-58,-44,-2,-2,-8,4
9,19,103,83,5,2,2,11
4,15,-44,-83,-3,4,-4,-26
0,-10,-45,-9,-7,-3,-2,-5
5,12,44,29,17,5,0,-4
50,6,23,28,-1,-3,26,101
-87,-49,-13,-16,-16,-7,-61,-128
-2,51,13,-8,3,4,8,40
-4,-10,5,-14,-6,-6,-5,6
7,15,26,9,1,-1,6,17
7,1,-34,-35,-6,-2,0,-2
-1,-16,-56,-9,-6,-7,-1,-14
9,-6,28,40,-5,-6,-1,5
-2,28,13,-12,4,1,1,-28
-14,-60,-21,-28,-9,-7,-6,-17
0,32,56,6,-9,2,4,16
-15,-22,59,63,5,-6,-25,-96
3,-21,-53,-36,-8,-3,-6,-38
3,5,-32,-20,-1,0,3,39
0,7,-11,-23,2,0,-2,-14
1,5,22,34,2,-1,-4,0
-5,-7,-9,7,2,3,2,4
4,0,-3,-22,2,2,1,2
1,8,46,25,0,-3,-5,5
0,-7,-2,5,-7,-3,2,-15
2,-3,-22,-30,-8,-1,-5,18
7,3,-27,-20,-2,5,3,36
1,64,38,18,5,1,-2,-4
-23,-81,-128,41,-6,-9,7,-17
-4,-30,10,-46,-4,0,-8,32
1,7,-1,2,-1,0,-1,-57
9,14,15,13,6,5,12,31
-12,0,-3,20,4,-2,-12,-8
6,4,-11,-52,-4,-4,-2,2
-6,3,-23,-11,-7,-2,-4,-1
8,24,29,-3,5,1,8,16
2,-33,-38,-25,-1,-4,-1,4
-9,-44,-90,21,-8,-5,-9,-10
-34,0,25,27,4,-6,5,40
22,-4,6,1,6,2,7,-5
-13,-13,-33,-36,-4,-4,-5,-17
-6,4,3,19,-7,0,-4,-7
-4,-3,37,-13,2,-1,-1,0
-9,-11,39,-8,-6,-9,-4,-1
0,-10,-67,-10,-2,-1,-1,-2
4,10,7,16,2,4,5,5
-2,5,40,25,15,0,-4,-1
9,0,44,-72,-8,-3,-5,-5
-5,0,-6,10,-13,-10,-5,7
-21,14,-18,-11,-1,3,3,-1
1,-17,-9,-9,4,1,11,32
-4,56,-15,31,4,-3,-15,-128
-2,-3,8,-15,-3,0,-8,-22
1,4,9,-19,-8,-4,1,-3
6,28,7,29,-1,-3,1,27
10,-6,-5,-26,-5,5,15,63
-2,-19,-15,-16,1,-1,-14,-85
-53,8,55,47,5,-2,-2,-20
7,10,49,11,-1,-1,9,13
-4,3,-40,-10,-8,-4,4,27
-4,-10,-47,-26,-8,-6,-20,-62
4,13,11,-10,0,2,2,81
0,-1,-61,-15,-1,0,-2,-26
1,10,46,-8,-3,-1,0,1
-21,-12,98,45,1,-7,-3,-8
-3,1,-56,32,5,-4,-4,-1
0,13,-57,-28,-7,-1,-1,6
0,-19,-17,-1,-6,7,1,2
-5,2,49,85,10,-5,-7,-7
6,1,-1,-58,-4,2,-3,3
2,7,-1,-9,-3,4,1,21
-3,10,21,6,4,3,1,-37
3,-8,-58,-1,-6,-9,-3,10
2,-7,23,-10,2,1,0,-13
-25,7,-36,-31,-4,-4,-3,20
-16,-4,-27,10,0,-1,-7,-59
0,-52,9,30,1,-4,3,5
-1,1,69,19,-5,-8,-11,0
5,-4,32,-15,-2,-2,-9,1
2,-12,-15,-13,-3,-2,-4,37
10,-10,-4,-9,-3,-2,-3,-14
-16,20,47,29,2,-1,-1,-8
4,-28,-23,13,0,-2,-1,3
-4,29,16,-22,-4,-1,-6,-34
-7,-5,6,2,-2,-2,-2,-3
5,1,-43,-4,0,0,4,6
2,3,-4,-44,2,4,6,7
-8,11,25,0,-6,-2,-3,-12
-6,-22,4,13,-2,-2,-3,51
-16,-28,-2,9,-1,-5,-11,-1
5,-13,-54,-23,-4,2,23,36
-5,-10,-25,15,-1,-6,-15,-40
6,15,27,1,-6,-5,-5,1
-36,-1,-26,-15,0,-6,-6,-10
13,-4,-44,-2,-6,-1,6,37
6,15,38,-39,-2,5,7,15
-1,12,44,58,-1,-7,-18,-1
-8,-24,18,1,-5,-5,-8,-16
8,24,-9,3,-5,2,8,20
-5,13,14,-4,-1,1,1,-14
-11,-39,-74,-36,-7,-6,-10,-16
5,-12,4,-2,1,1,3,23
5,22,20,28,6,0,0,4
-5,-49,-44,0,0,2,0,-3
0,24,49,-35,-5,-1,0,-6
-1,-3,3,22,-2,-5,0,0
12,-3,-4,-28,1,0,8,30
-12,44,58,-40,-9,-6,-5,-48
-31,-94,-128,-44,-7,-1,7,43
0,43,121,89,4,-6,-20,-20
0,-8,-47,-5,2,-1,-4,20
-15,-39,-16,-28,-7,-4,-8,-84
8,13,53,73,4,5,4,29
-3,-7,-11,-10,-2,2,-7,-31
8,7,-18,-74,-5,-2,13,20
7,-7,4,-21,-1,-5,4,43
4,-4,-6,5,-7,-2,-1,-6
-26,6,11,6,1,2,-5,-66
-3,0,-22,-16,-3,-4,-5,-11
10,25,-1,20,6,2,6,27
-5,-43,-4,10,-6,-4,-5,13
-2,1,10,-30,-7,0,10,5
-7,-4,-17,-13,-5,-2,-8,-72
11,6,-66,-40,-1,0,-4,7
-4,18,89,88,4,-2,-2,-3
0,-16,76,6,-5,0,0,1
4,62,-35,2,-7,3,2,3
-9,11,-35,-4,-5,-4,-4,-4
-8,-8,-128,-30,-7,-6,-4,-8
1,-5,24,4,-2,-1,-3,2
3,5,-20,29,12,5,0,-1
7,42,81,-35,1,1,-4,2
-6,-3,-12,-90,-7,3,1,-2
-6,-26,-21,29,-6,-5,0,-1
0,13,-4,24,5,1,4,-18
-6,8,-31,-8,-3,-6,-8,13
8,15,0,-23,-4,0,6,26
6,52,65,47,12,1,-6,61
-13,-64,-21,-14,-11,-8,-14,-15
-2,-23,-79,-34,-7,-1,5,-72
-15,2,80,43,-3,-3,-23,-2
-10,-11,-11,17,-3,0,2,-16
15,46,-14,-19,-2,-2,2,10
3,-72,-54,-9,2,1,1,3
4,8,-18,17,9,4,4,5
0,26,17,-13,-3,0,0,-1
-6,-10,32,-32,-12,-1,-5,-4
6,1,-12,-8,-2,1,15,18
-6,-2,4,6,-3,-4,3,63
0,2,-41,-16,5,-1,-12,-103
-9,6,34,36,2,-3,-6,-25
-9,-11,0,-2,1,-1,1,-10
11,11,-5,-3,-7,-3,2,19
2,-19,8,20,5,0,0,5
-8,-32,-37,-15,-5,-3,-4,-1
-14,-41,-18,-23,0,1,-3,4
-10,0,26,7,2,-3,-4,-26
2,2,-32,12,0,-4,-9,2
2,1,56,24,1,1,-1,-7
1,-27,5,-16,-11,-6,-14,-5
-34,-5,16,19,3,0,-1,2
-2,10,-4,10,4,0,-5,-3
4,-6,63,9,-9,-2,-3,-2
2,2,-13,6,6,1,-2,4
1,-9,-36,-9,2,2,0,-5
1,1,-18,-10,-9,-1,-2,0
-2,0,11,-7,1,-5,-1,-5
5,7,15,-9,-2,2,3,-2
1,17,13,24,5,-1,-6,10
-4,-19,-49,-19,-8,-3,-3,-2
9,30,42,-19,9,4,3,5
-10,-82,-89,26,-7,-5,6,-1
-5,-2,25,15,-8,-5,-5,32
-12,-16,-21,11,-3,-4,-32,-128
0,-41,35,17,0,-5,-10,-2
-2,6,-13,-49,-4,0,5,9
-2,-3,-30,0,-2,-5,-3,1
7,11,60,19,-4,-1,2,33
-9,2,52,4,-5,-3,-4,-19
9,5,-18,-12,-2,3,11,34
0,-24,-8,-6,-2,-2,2,-21
10,10,-1,13,0,-4,5,34
-7,4,-24,-14,-3,-3,3,-74
11,11,1,0,-5,-5,-3,16
-10,22,-20,-6,-2,0,16,26
-20,-93,-27,-6,-5,-7,-21,-102
5,13,-19,2,2,6,9,12
14,1,43,-35,-3,2,6,10
2,-20,116,83,4,-6,-8,12
18,26,-44,-16,-5,-3,6,20
-8,-15,-118,-18,-7,-6,-1,0
-10,-69,-1,15,-4,-3,-4,2
0,16,26,-67,-2,2,5,0
-6,-8,69,53,8,1,-4,0
-9,-5,-10,3,-6,-6,-3,-3
0,15,-15,-29,-7,-2,2,2
2,-23,-50,-22,-2,-1,-3,-1
-1,-5,-26,-29,0,-1,-4,-3
3,-4,20,34,-1,-2,1,35
-4,-1,19,8,0,-2,-4,-13
4,-1,-14,14,-1,-2,0,3
0,6,-41,-42,-8,-4,-12,-120
-17,-16,23,-33,-6,-3,0,24
1,10,-44,52,12,2,-2,-35
-6,3,40,-25,-11,-8,-8,4
6,5,5,-8,-8,1,7,15
2,-20,-96,-57,3,3,-8,-5
-1,7,127,127,-2,-12,-6,-3
-34,-2,28,-10,-1,-1,0,6
-2,-26,-19,-6,-1,-1,-2,-3
5,15,-23,7,0,3,2,2
-4,-44,-30,-24,0,3,3,-1
5,-5,2,-16,0,1,14,22
16,3,-18,-10,0,1,-12,102
-15,20,12,16,-5,-7,-12,-111
-7,-12,-22,0,-4,-3,1,-4
5,65,-15,-19,-6,-5,-1,30
-3,12,17,16,6,3,11,17
-1,7,25,9,6,-2,1,5
3,-7,12,3,1,2,4,50
-8,18,-33,-52,-1,-1,-4,-30
-8,-21,-61,-36,-15,-8,-4,-7
-8,0,-5,33,-6,-9,-8,23
6,11,63,24,4,-1,-4,1
1,-4,-35,-17,-6,1,-2,-1
5,-7,-66,-73,-4,3,4,-1
-8,15,92,44,0,-7,-5,-12
8,14,17,77,11,2,3,10
-3,-9,-40,-35,-11,-7,-5,-2
0,12,33,12,2,-1,-3,-5
14,1,-52,-33,-4,-3,6,-5
-6,-17,27,10,5,-1,-4,17
-8,-5,55,5,0,-1,-7,-17
9,-7,-55,-35,-2,1,3,12
-1,24,18,2,-7,-5,-5,-5
4,-29,-25,-8,3,3,2,2
-10,-29,25,9,-10,-4,-5,-6
2,16,35,8,-3,-1,-1,2
0,-2,-63,-6,4,2,0,-2
11,2,-28,-11,6,3,13,91
-11,6,17,-11,-2,0,-10,-71
-12,-6,-5,39,-7,-9,-10,-7
7,18,-1,-8,3,-1,13,36
-3,-1,31,-5,-9,-10,-13,-43
1,22,42,7,-9,-6,-19,10
6,-45,-98,-35,-5,0,6,11
-7,7,-9,-3,11,4,-7,-69
2,-40,-54,-30,3,-1,3,34
-5,27,38,-14,-15,-4,-10,-128
-9,9,-12,-19,-5,1,-2,-20
-1,-24,22,-21,1,0,-4,-1
-6,-12,29,75,2,-6,-9,-13
7,-14,52,13,0,-7,3,32
-1,-2,-60,-18,-4,-6,-3,16
8,5,-42,-36,-10,1,3,4
1,7,26,-1,0,-4,-1,-1
1,-52,41,17,5,0,-4,-9
-25,8,8,39,5,3,8,38
-9,-2,-8,-29,-6,-4,-17,-25
6,17,21,16,-6,-4,-4,-12
3,15,11,-19,-3,-5,-1,-11
9,-4,9,28,7,8,5,14
-10,-34,-128,-45,-16,-11,-11,-10
3,3,24,-2,0,1,1,4
-5,-12,-35,-1,-8,-3,-7,-2
11,10,7,-15,-1,5,10,30
-2,0,34,-10,0,-6,-6,-18
-15,-40,16,31,-6,-10,-2,-12
2,5,15,12,-7,-8,-9,14
4,-4,-5,14,9,-1,2,0
-15,-3,-12,-1,8,6,0,4
2,5,-24,-38,-17,-3,-4,-14
-1,-4,8,-15,-4,0,2,56
-3,13,8,-17,-1,1,-1,-12
9,-1,8,21,-3,-6,-2,-9
-4,14,-27,13,2,-2,-3,-12
3,17,3,1,2,0,-3,7
-8,-37,-22,-2,-5,-5,-8,-10
6,10,48,-6,1,5,7,21
6,29,22,10,7,3,2,1
5,9,4,-19,-4,-3,0,3
-8,-8,-22,3,-2,-2,-5,6
-17,-8,-128,-68,-7,-3,2,-15
1,-5,107,83,6,-5,-12,-16
14,35,118,10,-1,0,5,31
5,-12,10,51,-4,-6,-12,-17
-23,3,-27,0,6,5,0,-12
14,9,-27,-94,-6,0,4,80
-4,-6,-7,0,-6,-4,-3,-7
2,-10,-10,10,1,2,5,13
3,-5,-72,-39,9,3,-1,5
1,-5,11,-28,-6,-5,-1,-3
3,12,64,83,1,-4,0,31
-12,-1,9,37,0,-2,-13,-38
-4,-6,-35,-5,3,-3,-1,3
-5,-2,-1,24,-2,-1,-3,-1
-7,-4,-6,-24,2,-4,-2,-10
5,-17,9,9,-1,2,3,12
8,-27,-31,-49,-16,-1,9,14
-17,46,32,-10,-7,-6,-4,-21
-17,-30,-30,9,2,-5,-13,2
-6,-42,4,23,5,2,-1,-6
1,11,-8,-79,-11,-1,1,0
0,-5,13,18,-6,-9,-3,-1
-5,-13,8,17,0,-2,0,-1
3,9,-5,-5,4,3,1,-9
2,12,-5,-2,0,-5,-17,14
-14,-2,7,9,-1,-4,-6,-10
4,1,-6,0,2,8,9,25
-13,-3,-52,-53,-21,-11,-20,-56
3,53,80,49,0,-4,1,-72
2,-5,-35,-1,1,1,6,3
-16,14,44,25,0,-7,-31,-52
1,-24,-22,-9,-3,-1,-9,-17
15,2,11,-2,-4,2,10,75
-1,9,23,-5,2,0,-2,-24
-5,27,20,3,4,3,5,5
0,-5,-83,-33,-11,-5,-3,0
-5,-26,-25,-29,-6,-2,-2,3
4,-6,-10,15,1,2,2,-2
-1,19,-3,10,-2,-6,-13,3
1,-2,-15,-24,-7,-2,-4,2
9,-4,-15,-14,-1,4,3,7
4,4,4,6,0,-3,3,18
-10,-11,37,1,0,-3,-6,-40
5,19,28,31,4,-4,-6,0
-5,5,25,27,-1,-4,1,-3
-6,1,25,-15,-1,0,-13,-2
-2,1,1,6,5,-2,-3,-5
3,16,-26,-9,-1,4,2,12
-6,-31,-15,4,-11,-4,2,-28
-7,2,-14,-51,-7,-3,10,16
0,-2,10,-10,0,1,-11,-23
-1,-8,17,26,1,-1,-1,-4
1,40,16,18,-2,-5,-3,0
2,-6,5,-1,-5,-1,3,-1
7,8,-26,-46,-4,7,9,-6
0,10,7,13,5,9,10,96
-10,-24,0,38,-6,-9,-11,-20
-3,12,-60,-25,2,-3,-4,0
5,-38,-21,6,2,-1,-7,7
3,20,-10,-29,-7,-1,-1,0
-15,-9,45,29,-4,-6,-2,13
-4,-9,-22,-15,2,0,-8,-27
-5,10,68,23,6,2,5,5
5,15,28,11,-3,-3,-1,3
0,-16,-55,1,2,-2,0,-4
-3,-1,-65,-38,-3,-1,-6,-8
-6,0,44,35,-4,1,-2,2
-2,-3,-31,2,-9,-8,-4,-1
-6,-11,-36,-65,-10,-3,-2,-4
-4,-3,-40,-10,0,-2,-5,1
3,2,-19,-24,-3,-3,2,-5
-9,-21,40,11,-1,-4,-6,27
-4,-3,16,21,2,-2,3,-29
0,-1,-32,-8,2,4,7,-6
-2,5,3,31,2,-6,-7,-3
2,6,18,-47,-9,1,1,7
0,-8,-35,-21,-3,-1,1,2
5,3,-9,32,7,3,-1,3
-1,2,-7,-7,0,-5,0,-9
19,18,-12,-18,-4,-4,7,8
8,12,-34,-24,-1,3,-6,67
-24,-18,103,28,-11,-10,-7,-17
4,-49,-7,-2,3,-2,-4,11
1,6,-16,7,-3,-3,-1,1
3,3,48,-15,-3,0,-1,0
8,17,-25,-54,-11,3,5,5
-6,-16,-41,26,1,-5,-4,-9
3,13,-8,33,5,-4,0,0
-11,-33,23,-16,-7,-3,-4,-7
-5,-18,-54,-26,-1,-1,-5,-1
-5,-3,17,4,3,4,3,-12
11,10,13,-4,-6,-2,-1,14
0,-7,-17,-6,-4,-2,-2,-2
-2,3,36,-17,4,2,0,-2
-5,-24,4,-20,-6,-2,-1,-8
-4,-4,42,75,3,-4,0,-2
-5,10,-20,-13,-5,-2,0,1
-5,1,7,-4,-1,1,6,43
-13,-2,48,34,-4,-5,-13,-55
8,66,-19,-14,-4,-6,-4,1
-7,-61,7,-28,2,1,-3,6
2,-4,-28,6,3,3,-2,2
-4,-12,-69,0,-10,-2,2,4
5,-2,1,-19,3,1,0,9
4,-4,19,-8,-8,-7,-4,5
1,11,-5,20,2,0,-4,-11
-5,-6,-44,-26,-4,0,6,9
3,-12,-27,-32,0,1,-2,-5
1,5,13,16,13,3,0,-2
-2,23,65,35,-2,-2,0,-2
-1,-43,-24,1,-3,-2,-4,-2
4,12,-16,-42,-7,-4,2,-2
-5,-6,23,-7,1,1,3,-4
-5,0,36,61,2,-3,0,-15
12,5,-16,6,2,1,5,27
-7,3,-7,7,2,1,1,24
-11,-26,-121,-35,-7,-4,-2,-36
-6,-1,-11,4,0,1,-13,12
-9,-5,6,7,9,1,-5,-3
7,0,0,-14,1,0,-1,4
-1,-5,19,-32,-6,2,2,-2
-4,-15,-33,-29,-11,-8,-2,-6
-10,-13,-26,-3,-7,-3,-5,-3
-2,5,-16,-6,-2,-4,-5,-1
5,34,86,74,4,-5,3,0
1,-3,49,39,16,4,0,0
-3,-3,-45,-23,-2,1,-1,1
-5,-13,-34,-8,-6,-2,-2,-6
2,-6,-4,-32,-2,1,0,-1
-6,3,-62,-13,-3,-1,-7,-25
6,28,94,27,6,2,5,10
-10,-12,-5,43,-4,-6,-11,-7
-4,-21,-53,-35,-16,-9,-5,-2
6,-31,69,7,3,-4,-1,1
5,14,-7,-5,11,3,0,-11
-28,-3,0,-41,-7,-2,0,21
8,18,-17,-2,2,1,6,4
9,0,-45,-43,7,3,-2,1
-1,-22,65,-10,-9,-8,-4,-18
1,8,-44,72,-2,-6,-2,50
5,7,3,1,8,5,9,-45
-3,-61,5,20,-3,-4,-17,-14
5,6,-6,-6,3,1,6,0
2,-16,-17,-18,-9,-3,-20,10
-2,7,-7,-37,2,2,0,-10
9,12,41,15,6,2,2,8
7,15,-27,13,3,0,0,1
-3,-31,-64,-54,-19,-3,2,5
0,1,-14,0,4,-1,-1,-9
1,7,11,-18,9,3,5,12
-3,-8,47,51,2,1,3,-52
-6,-3,-2,6,8,0,2,2
6,23,-23,-20,-7,-2,0,1
-12,-49,-7,-3,-5,-4,-4,-5
0,3,6,9,0,-6,-6,-2
8,3,-15,-18,0,4,-4,-10
-10,7,19,-9,1,0,-1,10
2,-2,19,19,-2,-4,4,39
-2,4,2,-18,-9,-9,-17,-21
12,4,-95,-21,-1,2,8,6
-5,15,38,51,5,-2,-1,-1
2,-8,1,20,1,0,-5,1
0,-17,-2,-39,-9,-1,4,3
-1,-20,20,4,4,-2,-8,20
1,6,-10,4,5,1,2,-13
3,35,-25,-13,-4,1,0,2
4,-24,30,-14,-10,-4,3,6
4,12,-18,-4,-5,-2,-1,3
-11,11,-55,38,-4,-12,-11,-8
-4,-14,-23,-13,-8,-5,-5,-13
4,6,-2,3,9,0,2,14
-5,40,3,-17,-3,0,-9,-11
9,20,51,18,7,5,6,8
-5,-31,-32,-3,-4,-1,-4,-10
-5,-15,-38,-24,-3,-2,1,5
4,6,-48,-8,3,-1,4,2
-4,-16,64,32,-1,-4,-4,-18
-12,-4,-30,-26,1,0,2,18
9,-13,34,16,-3,2,0,-5
8,10,-27,-7,-1,-4,-3,14
-4,-10,-20,-9,-6,-6,-2,-7
-14,5,12,2,-2,-3,-1,-4
1,17,6,11,4,2,0,-6
8,20,-5,-6,-1,1,10,30
-3,0,11,-7,-1,-1,-5,-48
3,-19,44,-8,-1,-3,-4,16
4,2,-23,-10,1,1,6,19
-13,-20,-82,-16,-1,-2,-7,-17
-5,0,-18,15,1,1,-2,16
5,12,22,-21,1,2,-2,12
-7,-16,20,31,-4,-6,-8,-7
2,3,1,-13,-7,-2,0,10
8,11,-7,6,6,3,3,5
-6,2,4,-10,-6,-2,0,-3
-1,-55,-37,-9,3,5,1,-4
0,8,56,13,-1,-5,-4,-3
0,43,-16,18,-5,-1,-1,-5
-8,-56,-67,-41,-7,-5,-5,-2
-1,11,10,-15,4,1,-1,-2
0,19,12,45,-2,-2,-3,-5
1,52,-5,21,3,-1,1,-4
-17,-35,0,-9,-8,-9,-10,-15
3,-41,-64,-7,1,-1,-2,0
0,9,-6,-24,-2,0,0,4
-4,-7,-13,-25,-2,1,3,-1
-3,-4,28,5,-5,-3,-9,-12
0,-21,4,0,-6,-8,-8,-8
1,8,16,-11,1,-2,-2,-1
9,3,52,26,2,-5,0,9
-19,-10,-42,26,1,-3,-2,-1
0,9,-20,-10,-2,1,0,-2
10,19,21,-22,-11,-1,5,14
-6,-7,-43,-11,-12,-6,-4,-15
-7,-47,-29,-32,-4,-4,-3,7
6,25,-8,-16,8,3,5,2
0,8,127,96,7,-3,-3,12
-25,-37,-82,-29,-13,-13,-19,-39
6,10,-7,-20,-6,-1,-4,-16
5,10,57,71,5,-1,3,1
9,-6,-25,-10,-7,-3,-2,4
-15,6,-35,-18,-3,-3,3,4
2,6,10,-12,5,4,-1,-22
1,-9,6,-8,-4,-2,4,5
2,23,19,-4,-2,1,4,9
-13,-73,5,-6,-1,-3,-17,-35
1,7,-41,-6,1,4,3,1
-3,5,11,14,1,-4,-3,-11
5,-5,-40,4,0,1,4,9
-9,-7,-12,-52,-5,-7,-4,4
-1,36,16,39,9,-1,-6,-3
-4,15,23,33,-2,-1,-4,-5
8,20,27,4,4,0,1,2
3,-24,-54,-29,7,9,4,1
-2,21,-40,-71,-12,-1,-2,-1
-3,5,54,37,-2,-7,-5,-4
-4,-16,23,-23,-10,-7,-2,-5
2,-1,31,11,-3,-2,-3,-1
4,9,20,39,0,-5,-5,3
-5,1,-41,-35,-1,-2,-5,8
2,1,-5,4,7,4,-2,-2
-1,7,-27,-14,-4,0,5,41
-1,-4,-22,-5,1,-1,-2,-25
2,-1,1,-14,2,3,0,-1
0,0,-8,-19,-9,-4,-2,2
4,3,-22,-10,0,1,1,-4
1,3,39,29,-9,-8,-9,5
1,26,47,38,12,3,-2,0
-10,-27,19,0,2,-1,-3,0
-4,-4,-89,-45,-18,-5,1,-8
10,19,6,13,7,3,2,15
-2,-50,33,-6,-1,3,15,60
-16,-5,-48,-13,-4,-4,-26,-31
0,-11,2,4,-1,-3,-7,-4
-4,-5,21,50,6,-1,2,-5
8,36,24,-17,4,1,1,9
-5,-55,-82,-30,-12,-1,1,-1
6,16,76,31,1,1,0,1
-26,-11,-35,-23,0,-4,-5,-8
8,13,-53,-6,3,1,5,10
3,-24,-27,-37,-2,0,2,-1
-1,13,64,-2,-3,-4,-4,-6
7,15,51,40,4,-1,4,42
-9,-9,19,43,-1,-5,-7,-22
3,6,19,-23,-12,-2,0,0
13,29,-14,7,4,3,6,23
-9,-7,-56,-39,-2,-2,-3,-12
-5,-24,31,1,-8,-4,-3,-6
3,7,-26,6,5,5,0,4
-4,-97,-9,-26,-10,0,4,2
0,39,60,33,1,0,-4,1
0,20,21,-41,-3,-1,-1,2
1,-3,-108,-13,-3,-2,0,2
4,11,114,23,5,2,-4,-3
2,24,-30,22,-5,-6,1,4
-6,-11,-61,1,-2,-8,-14,-11
-17,-34,0,7,-7,-8,-3,25
1,12,2,3,5,1,1,-1
2,7,-5,-43,-5,-1,2,40
-6,-59,-34,-35,-5,-2,-6,-25
5,2,-56,-11,-3,1,3,-6
4,28,72,38,5,-2,-13,-8
-12,-8,-3,7,-2,-3,0,3
-1,-17,-22,-28,-3,0,-4,4
1,2,-69,-11,-2,0,-3,-2
4,-6,-48,4,6,4,1,19
-7,-13,112,0,-7,-8,-8,-56
-1,12,27,-10,1,-1,1,2
-1,-2,15,51,-1,-1,-5,-2
-3,-9,-9,-40,-13,-7,0,33
-1,6,4,17,6,2,-4,-14
-1,3,-1,-19,-5,1,4,5
3,-2,-28,-27,-4,-1,-6,3
4,0,-6,-1,0,0,0,4
-1,1,-19,-17,5,-2,2,-1
-3,40,104,58,2,1,4,-3
-8,-4,-48,-25,-9,-3,-9,-4
-12,-20,50,40,-2,-10,-11,-16
4,3,-1,-4,2,-2,-1,3
-8,-40,7,-14,-5,1,3,-1
-18,3,-95,-3,0,0,-4,-10
-2,-1,-12,-20,4,-2,-1,9
7,6,16,14,0,-4,-3,-87
-3,-10,-32,-11,-4,-2,-8,-16
12,2,-9,6,-5,4,9,18
1,9,4,-28,-2,-1,0,1
6,10,57,8,-7,-8,5,5
6,-13,54,42,3,-4,-19,-24
-23,-10,-43,-23,-4,2,2,31
-11,-16,-17,0,-9,-5,-6,-42
-1,8,-6,-16,-4,-2,1,7
1,1,-18,-18,0,4,0,3
-6,-18,-27,-32,2,1,1,-1
5,28,63,59,-3,-5,3,7
1,16,-9,-6,-3,-3,-4,1
-3,-1,39,6,-6,-2,0,-1
9,13,74,47,7,-1,1,0
-2,2,42,-1,-1,-2,-2,-1
-9,-49,-128,-61,-24,-12,-4,-6
4,31,-49,-25,9,4,7,0
-22,-95,5,7,-4,-6,-18,-10
-5,3,36,14,-4,-4,-1,-1
-3,5,43,-4,-2,-4,-5,1
3,7,-24,-3,-3,-3,-1,1
1,6,12,0,2,0,1,-8
-8,-8,-41,3,-1,-4,-9,0
2,6,-6,-25,-10,4,5,-1
-8,-2,14,13,-6,-7,-8,-7
-1,-1,4,44,9,4,-1,-1
-4,-1,-40,-40,-6,-3,-4,-3
-10,-22,-7,-11,-3,-5,-4,-7
-2,1,7,12,5,4,5,14
-9,-10,-32,-19,-3,-8,-8,50
-5,11,14,4,0,-3,-4,-32
7,27,50,14,0,-1,-2,3
5,-12,-15,-36,-1,1,-2,5
-14,-96,-128,-50,-6,-6,-8,-8
-9,15,124,116,1,-1,9,30
-12,10,10,27,-4,-2,-14,-128
3,-8,-53,-99,-18,-6,-14,10
17,13,-26,41,-3,-1,4,8
12,7,-19,-98,-4,2,1,4
-22,23,-10,99,11,1,-4,0
-1,30,15,23,-1,-2,-2,-2
4,7,-29,-120,-10,0,-1,1
-4,-2,16,5,-10,-7,-4,-4
0,-2,34,41,4,1,0,-2
-5,7,34,63,7,-2,-8,-18
2,2,-9,19,1,-1,-2,2
-2,3,-23,-1,-1,1,-4,-4
0,4,19,4,-6,-1,5,12
3,2,-26,-10,3,1,-13,-24
-8,-10,-19,-9,-1,2,3,2
-19,-26,-74,-47,-16,-13,-13,-4
0,-8,-8,-23,-4,-2,0,2
-10,5,-7,-11,-4,-2,0,-2
1,-5,29,24,4,2,0,24
-5,-9,37,-3,-1,0,-3,-29
-2,26,27,27,3,-2,9,-16
0,-11,-41,-7,-6,-2,-11,5
5,-26,-67,-48,-5,0,-4,12
1,-20,-66,-78,-3,2,-1,3
9,21,127,40,-3,-7,-5,3
-46,13,112,127,0,-11,-6,-14
-5,-13,12,14,-8,-7,0,11
4,4,-27,-15,6,0,-2,0
5,1,-21,-36,-1,4,1,0
5,7,-59,-37,-2,-1,-1,0
3,-13,-27,-13,0,0,-4,3
0,13,-65,-56,-4,0,0,1
-7,-29,29,-4,0,-1,-4,-1
0,13,34,46,0,-7,-1,-1
-6,4,86,31,-2,-3,-4,-3
-8,-19,-47,-6,-1,-1,-1,1
4,-9,-30,-42,0,4,6,15
-12,-26,-7,33,0,-7,-14,-60
6,16,26,15,3,-5,-1,1
-2,9,3,-20,-10,-3,-6,-2
-2,-2,26,21,-5,-3,2,1
8,8,54,-1,3,9,1,4
0,-17,-100,-26,-6,-1,4,1
-1,19,0,3,1,-3,-5,6
-8,-42,-14,10,0,-3,2,-31
2,4,33,10,1,-1,1,2
2,2,-10,-19,-6,-6,-17,-16
-22,13,-1,-2,-1,-4,2,-3
1,7,-12,-5,-4,0,0,2
-1,-41,-52,-13,0,3,0,-2
5,-3,-51,-44,4,5,1,0
-4,24,127,51,-4,-7,-5,-3
-6,6,-16,72,5,-3,6,43
-5,-7,41,-17,-7,-6,-9,-20
-2,23,5,37,0,-2,-7,2
2,12,-47,-26,-3,-2,9,11
2,5,-27,-24,0,2,-14,-1
17,-18,-74,-66,1,-2,-1,1
-8,-3,97,47,-2,-1,1,-5
1,24,12,33,4,-3,1,10
-5,6,-13,0,-5,-2,-9,-17
4,13,-13,-35,2,7,3,14
2,-1,-62,-46,-4,-1,2,0
-2,-23,41,33,-2,-3,-5,-3
11,28,34,37,3,-3,-2,16
-16,-24,52,10,0,-6,-3,-10
0,-3,-3,0,0,-2,6,15
-7,4,-17,-7,-4,-2,-18,-46
4,11,-15,-7,-3,-6,-8,-15
9,23,8,-11,-1,4,-2,-84
-12,30,44,-3,0,-4,1,0
-3,-13,-53,-4,-1,-2,-2,5
0,-10,-41,-46,-2,1,5,7
-1,-12,-21,-12,0,-1,-1,3
-3,13,103,80,-6,-6,-4,-3
4,23,43,43,7,4,3,-3
3,12,20,11,1,2,1,6
5,3,-69,-35,-9,-2,-4,5
0,-11,-27,-11,4,2,-1,-3
6,7,23,-9,1,7,4,9
18,-3,-64,-31,4,2,-1,-2
-45,4,58,-2,-4,-8,-6,-7
-9,-11,19,41,-8,-10,-9,-6
3,-3,-19,-17,-5,-4,-1,0
3,0,1,-38,0,-1,3,-1
0,28,-21,-20,6,4,1,-4
4,-28,-2,66,2,-4,4,0
17,19,30,4,5,-3,-3,-2
-21,-3,58,1,-9,-9,-6,0
-10,-54,-84,-11,-8,1,-3,-21
-2,-9,-31,-14,-3,-4,-5,0
3,20,18,11,4,0,4,0
1,-4,-19,-40,-8,1,1,12
-9,3,18,-26,-4,2,-9,-18
1,-17,-20,-6,5,1,6,72
-4,0,51,41,3,2,1,-55
-3,35,30,16,0,-5,-1,-18
4,-20,-21,-8,-3,-2,-1,36
-14,-17,-25,-12,-2,-3,-8,-37
-4,-5,-15,-40,-6,-2,-1,2
-1,-10,20,42,-5,-1,0,-10
17,3,-16,-37,-4,0,3,2
12,15,36,6,-7,-5,-2,7
10,3,19,17,-2,-4,-1,46
-6,10,-12,15,4,0,1,-20
-1,5,-44,-14,1,-1,4,27
6,2,23,-15,-3,0,-7,-6
-7,-37,-63,-22,-9,-9,-6,-5
0,1,-8,36,1,-4,-4,0
3,3,-21,-3,-1,0,1,3
7,14,45,15,0,-2,2,2
-1,-30,-49,-15,-2,1,-1,-2
-2,17,-22,-13,-5,-3,-3,-1
-1,-5,-37,2,-6,-5,9,-2
5,0,-12,8,11,3,-11,-1
2,4,16,-18,-2,-2,-7,-4
-4,13,-4,31,5,-6,-6,-30
-7,40,73,-5,-10,-7,-4,-8
-10,-53,-11,-30,-18,-5,-5,-8
-5,-9,93,17,-4,-6,0,2
4,-9,-115,-31,5,5,5,34
-4,-3,35,47,5,0,-4,-12
-4,2,-18,-21,-7,-3,2,-9
11,26,21,22,0,0,3,9
3,-10,5,-35,1,-3,-6,72
-11,-36,-47,0,-7,-2,-2,-64
-30,-1,94,35,2,-4,-3,-13
1,-4,14,7,1,-1,1,1
5,-2,-84,-31,-8,-1,1,10
1,-1,-15,0,-1,-5,-5,1
9,17,10,-7,-1,3,3,-6
0,32,-12,-20,-1,0,-2,-9
-7,1,62,23,-4,-2,-8,-1
1,6,20,9,0,-1,2,-14
-6,-42,-63,-28,-1,-2,-2,14
1,-11,-19,5,-1,0,8,2
1,10,30,26,2,-4,-7,-4
-1,-5,34,56,9,6,1,1
3,7,-15,-17,-2,2,5,6
-4,-5,-28,-32,3,3,-5,-2
3,5,21,9,-1,-2,0,1
-10,-10,-2,-7,-4,-3,-2,-5
-1,-9,20,8,1,-7,-3,-2
-3,-9,-23,-19,-1,-3,-6,-6
-6,6,53,-21,-7,-3,0,-9
1,-3,-16,24,-4,-4,-3,22
-8,-12,-8,11,-1,-1,-4,-26
2,-20,48,-3,-2,-3,-3,4
15,0,-36,-2,3,6,2,7
7,2,-27,-49,-7,1,1,57
-53,-15,-7,8,-4,-6,-4,-37
-2,-8,42,49,5,-1,-3,19
-6,-4,-8,-18,-3,-2,-3,-50
4,20,38,44,-2,-2,-1,-7
7,-1,49,15,-5,-1,0,28
-1,12,1,-14,7,3,-10,-19
-1,-28,-111,-11,3,0,2,1
3,-15,23,-8,1,1,-10,-7
1,13,20,-10,0,3,-2,2
0,-2,-5,-22,-9,1,7,-11
3,6,2,13,-1,-6,-5,12
6,-11,-2,-9,-2,5,-1,6
-8,6,-8,7,-5,-3,-1,2
0,3,6,23,9,0,-3,13
-4,11,38,2,3,0,-1,-23
1,-1,-22,11,-3,-2,5,53
-8,-13,-47,-25,-1,2,1,-20
-6,5,16,-71,-8,-5,-5,0
4,25,49,79,1,-1,-4,5
-3,8,-9,5,-4,0,0,0
-1,-10,-57,2,-2,0,-2,2
7,-5,12,-26,-5,-5,-11,-18
-5,7,13,21,-1,-4,-3,-5
3,6,-11,-4,-3,0,1,0
9,-5,5,-6,0,0,-1,-12
3,11,-6,-9,0,2,3,14
0,-50,-38,-18,0,-7,-6,-4
-3,25,8,-4,-2,1,-6,-17
-8,2,-1,-7,2,1,2,8
0,-16,-14,0,-1,-1,-2,8
12,9,26,18,2,-1,0,6
3,-5,11,9,-2,0,1,31
4,-9,13,8,-9,-5,1,-51
-10,18,-74,-47,-2,-2,-1,-45
5,34,47,24,2,0,4,8
-4,-35,26,30,5,4,3,9
-4,8,-15,-25,-6,-1,-3,-5
3,14,34,23,-2,-1,1,7
-4,-3,81,1,1,-1,-2,13
3,-12,-128,-22,-3,-7,2,9
-29,13,-19,4,2,-3,-5,-15
-2,-13,24,3,5,2,-2,-15
4,8,38,3,-4,-4,-8,6
10,12,-1,-11,2,6,1,0
-37,15,2,11,1,-2,-2,-3
3,-20,0,-9,9,4,-2,-1
-4,-53,-18,-53,-5,-1,-1,-5
-1,29,53,52,-7,-5,-5,-7
0,67,6,48,3,-2,-1,-1
0,0,-74,11,2,0,-1,-3
9,12,-14,-4,5,1,2,6
-1,0,21,8,6,1,2,-11
7,11,22,-7,1,2,1,11
-6,-10,12,-1,-5,-1,14,11
-7,-6,-16,-5,2,1,-8,-2
6,-14,-3,-11,-2,-5,1,13
3,12,-2,13,3,-4,-4,-7
5,2,-26,-22,-14,-2,1,7
-2,-10,-9,-14,3,2,3,20
-13,-20,-61,-17,-5,-8,3,-12
14,-3,-37,0,4,5,0,7
-1,24,83,70,0,-5,-7,1
10,-7,41,22,0,-1,2,15
2,5,-2,-6,0,4,-1,-9
-14,-16,-76,-24,-7,-4,-7,-95
8,19,-19,-12,-1,-3,-2,-7
-4,2,-17,-12,-5,-4,-5,5
1,-16,28,1,1,1,-2,4
-1,-2,-46,-28,4,4,1,-14
2,13,35,15,0,3,4,22
-3,7,-1,-16,-1,-3,-8,-2
-4,-15,-37,34,-1,-1,1,3
3,44,-68,-68,-5,6,8,4
-1,-13,1,-16,-9,-6,-6,-4
-3,0,3,91,-4,-7,-5,-4
5,49,34,-24,6,0,1,-3
-7,-14,-11,-4,3,1,0,-3
-5,6,-8,-21,-5,5,3,0
1,26,39,28,-1,-4,-2,-3
5,-72,31,-5,6,3,1,3
-13,-44,-82,-46,-5,-2,7,4
-5,1,17,8,0,3,-15,-36
0,8,35,27,0,-6,-7,-28
3,-14,5,-36,-1,0,-5,-6
-21,-32,-45,23,-4,-9,-9,-4
9,3,-13,-41,-7,3,10,63
2,9,26,18,4,2,-6,-18
4,16,57,38,3,-3,-1,4
5,16,-28,-2,3,1,-2,3
2,-23,-38,-10,-1,3,1,-1
0,4,-4,-16,-7,-1,2,1
3,13,8,-4,-1,0,1,3
0,-30,-6,5,8,3,7,2
3,1,-6,-3,-3,-3,-5,4
10,-3,-33,-37,-2,0,3,35
1,-1,9,-6,-1,1,-3,-26
-6,-24,39,45,-4,-10,-6,-9
-3,29,55,24,2,0,0,19
-8,-24,2,0,1,0,-10,-22
1,4,-4,-22,-9,-8,-1,0
1,13,8,-9,-7,-5,1,12
3,8,-39,-2,2,6,3,-10
-9,-35,10,-19,-6,-2,-4,2
4,40,63,24,6,4,2,34
6,1,-23,-10,1,0,0,42
-7,-16,-12,-14,-7,-4,0,-9
-1,-26,4,-9,-5,-2,0,13
-34,-14,19,2,3,2,7,-15
-3,9,52,3,-8,-4,-8,-27
4,-1,-20,-18,-6,-2,2,8
6,3,9,15,2,-10,-7,-11
-8,0,26,24,-7,-8,-7,15
-10,6,8,14,2,-1,1,-3
0,-6,-25,-25,-3,-1,-2,-1
2,-4,-22,-12,-2,1,0,-3
1,2,15,-15,4,5,-2,-1
1,18,-24,12,6,0,-1,-2
-4,-10,-12,5,-10,-1,0,0
1,4,-27,-8,0,0,-3,1
-3,3,63,-1,-1,0,3,4
-11,-12,-35,6,-2,-2,-9,-29
10,26,25,5,0,0,16,45
3,45,64,21,-1,2,-14,28
-9,-72,-76,-42,-4,-2,-3,-9
-5,-2,12,3,-1,-2,1,3
-1,34,-27,-1,-9,-3,1,10
2,42,94,46,-1,-6,1,8
-4,-15,-57,-83,-6,0,5,-3
7,17,29,29,4,-2,-3,3
4,18,-12,47,2,-6,-5,0
8,5,35,15,0,-1,0,-7
-50,-25,-6,-24,-6,-6,-6,-5
-1,2,-28,-25,-3,-2,-2,0
-1,-8,-31,-17,-12,-2,1,-5
7,-8,-42,-38,9,4,2,2
-5,8,66,27,-8,-3,0,-5
-2,4,20,59,-1,-5,-6,-20
2,-8,-32,-7,0,0,-2,13
2,6,-12,-10,4,2,2,-6
-3,3,-40,-45,-9,-6,-1,32
-11,5,-3,2,0,0,-3,-19
6,6,-16,-19,0,4,3,-19
-3,1,73,28,-4,-7,-8,1
9,13,42,10,-2,-2,16,35
-1,0,-20,-25,-10,-5,-13,-1
-4,-10,23,20,0,-1,5,30
-5,-6,-35,-9,-1,-4,-2,-4
12,21,6,-9,-1,1,5,53
9,14,48,44,8,4,-1,15
-12,-14,53,-67,-6,-4,-5,-41
-3,-4,12,-21,-4,-3,0,7
-16,-25,-20,47,-8,-12,-7,-6
1,-20,-38,19,4,-5,-2,2
4,9,13,2,-5,1,4,1
-15,13,7,-39,-1,4,6,12
2,9,20,-1,-1,-1,-4,-2
5,16,-3,8,0,-2,3,-6
4,15,26,31,5,2,-1,-4
-6,44,-2,-17,2,0,2,-1
-10,-2,14,5,-2,-5,-6,-2
-5,-6,-9,-11,-6,-5,-8,-17
5,-8,-13,-13,0,4,4,-15
7,15,-22,-16,-8,-4,-10,5
6,-5,-5,-7,2,0,-5,-13
12,-6,-46,-21,-5,-1,3,29
-11,-7,5,-6,-7,-6,-7,-28
5,30,8,-9,-1,1,7,15
-8,-1,60,44,2,1,2,-19
16,-6,-37,17,10,-1,4,16
14,21,16,-51,-6,-4,-15,-4
-6,-19,48,46,-6,-2,1,56
-5,-11,-12,14,2,-9,3,-32
4,1,-38,-13,0,-1,0,4
7,10,2,-2,1,3,4,5
6,43,24,-8,-1,3,1,-1
1,-65,-2,13,1,4,4,-11
11,-2,8,-6,4,0,1,16
-50,-48,-41,-18,-8,-5,-9,-6
3,6,26,12,-4,-2,-2,0
1,-6,-28,-5,0,1,-5,-6
-1,24,17,24,-1,1,0,-4
1,2,-56,-53,-6,0,1,-3
-10,-11,110,42,-6,-8,-4,-8
-2,36,74,86,-1,-4,-2,-1
-7,11,-47,-8,8,-1,3,-14
5,9,-28,-16,-4,3,5,24
-4,-10,-38,-46,-11,-3,-1,-2
-11,-13,-33,-14,-2,-2,-1,-8
3,2,74,-5,-3,0,3,-6
-6,-20,-3,-9,2,0,-1,5
-2,5,1,-19,-10,-6,-8,-17
-4,12,5,19,1,1,1,-4
1,11,31,14,3,-1,5,44
-15,-3,-1,-1,1,-3,-17,-21
1,-4,-11,-17,-1,-2,3,28
-5,-3,30,16,-2,-5,1,7
7,10,-35,-1,-1,1,6,6
9,7,21,8,2,1,-1,9
-5,6,49,2,-2,-1,-1,-10
-4,-4,-69,-29,0,-4,-3,18
7,76,12,-11,-10,-5,4,9
-8,-46,44,68,3,-1,-3,-14
4,-16,-23,-28,-5,0,6,56
-10,-43,-18,-14,1,-2,1,-8
7,12,38,26,8,3,2,1
2,18,64,10,0,2,1,-1
1,-3,-116,-27,-4,7,1,2
-4,-10,-35,-7,-3,2,-7,-1
-3,8,74,13,-4,-10,-1,11
-8,8,22,-9,-4,1,0,-40
-5,10,9,-18,4,-5,-4,-7
5,2,-38,-13,-1,0,1,-4
-6,-8,5,-20,-12,-1,0,8
0,2,32,58,7,-2,-4,6
-2,4,39,6,7,-2,-2,-5
-1,-44,-76,1,-7,-5,-7,2
1,9,4,-15,-4,-1,9,1
-3,2,-29,-19,-2,0,-6,18
-6,12,24,7,-3,-1,-7,-10
1,-38,-48,-10,-1,-6,-4,1
4,5,-12,-21,-6,-1,0,0
-44,-18,-5,-7,7,5,1,-7
4,35,53,6,-3,0,-2,-2
7,13,10,-12,-5,-4,-2,11
-4,-70,-6,-23,-4,-4,-5,-8
-12,-31,-34,0,-6,-6,-6,8
8,12,-47,29,4,2,3,53
0,12,27,8,5,3,-3,-85
2,4,16,1,3,0,-3,10
-6,-19,-20,-5,1,-5,-6,-8
7,3,-17,-15,2,7,7,14
0,5,-17,-17,-2,-2,-9,-4
-9,13,66,21,-5,-7,-1,-6
-7,-16,6,-16,-3,-4,-2,-8
5,1,-14,10,0,-4,-1,16
0,-6,-8,-14,-7,-1,-4,1
-3,-4,-14,9,-1,-6,-4,-1
1,-4,-11,3,7,5,0,0
7,-8,63,13,-1,-2,-1,-2
-7,-15,-29,-14,-4,-4,0,-2
0,0,-5,-28,-5,0,2,0
4,-6,-73,-8,3,2,3,-11
1,17,35,-22,-4,-4,-4,7
-12,-33,40,31,-10,-12,-7,-9
14,11,6,20,2,0,2,21
-51,-83,2,-5,-1,-3,-6,-2
-2,10,35,-13,-1,-3,1,-4
4,7,-5,-4,4,3,0,0
13,26,20,14,3,6,5,8
8,1,-5,-35,-1,2,7,1
13,-7,-77,-38,-6,1,-8,60
-34,-4,74,63,-6,-15,-21,-128
-4,-33,-23,8,1,1,5,9
4,9,18,-11,-3,0,4,-2
-4,-33,-23,8,1,1,5,9
4,9,18,-11,-3,0,4,-2
0,2,32,-3,-5,-4,-8,6
5,7,-8,-6,3,-2,-2,4
