Channel_1,Channel_2,Channel_3,Channel_4,Channel_5,Channel_6,Channel_7,Channel_8
2,1,5,-1,3,2,-1,1
-42,-7,-66,26,4,-2,31,42
27,20,97,-18,-3,0,-45,-12
-18,-23,88,-90,-9,-4,1,-34
-2,-2,-21,126,-4,-5,4,-2
7,13,-17,-121,-4,5,11,7
5,14,-5,-12,-11,-10,0,8
46,18,22,82,10,5,4,21
-27,32,-14,-60,-13,2,-6,-16
-7,-8,-24,61,-2,-21,-6,-2
3,25,-2,45,11,12,0,0
12,-30,9,-128,-7,3,13,6
4,-10,6,127,3,3,-28,-8
-4,-1,-24,16,10,4,3,58
16,31,-5,-103,-12,-3,3,12
14,1,75,66,-5,-6,2,3
-10,5,-16,31,13,14,-4,7
9,22,-40,26,12,-9,-1,2
2,-44,29,24,0,-6,-4,-3
2,35,8,7,11,18,7,-2
-7,-50,-5,-18,-5,3,3,-1
-4,-14,-4,9,-8,-2,5,1
4,18,3,-18,1,-2,-19,7
0,7,46,-3,1,-1,2,1
25,33,32,0,2,2,10,28
-21,36,66,14,-5,1,-3,-15
4,-3,-70,6,16,-4,-4,1
-13,-36,-19,-107,-31,-16,-14,-6
1,7,-14,17,7,-1,0,5
-5,-11,4,-28,-2,-1,-1,0
10,-21,-34,1,-1,0,0,2
-17,12,-9,-30,-11,0,14,72
-22,13,46,11,-2,-6,-15,-68
6,-4,18,7,6,2,5,20
-9,19,32,-6,0,-2,-7,-16
-20,-32,-61,-10,-9,-12,-17,-5
5,25,12,5,7,8,-4,-12
-7,1,5,-5,3,-2,4,-8
-10,-87,-36,-16,-4,-8,-2,-1
-6,-1,-1,-2,-5,-6,3,-1
4,7,-27,7,-9,4,9,-17
20,37,-14,-35,0,0,6,51
4,22,-25,16,5,3,-2,-7
22,29,-78,-41,6,2,2,23
-47,-51,79,8,-15,-13,-10,-17
-16,-27,-7,6,-2,-3,-6,32
-24,12,-10,6,9,12,7,-117
80,19,-44,-42,3,3,-5,84
-41,-9,112,33,-11,-8,-4,-128
34,28,-128,-46,1,3,-5,-65
-102,-30,-112,-112,-16,-8,-10,-11
-23,-64,127,119,0,-10,-5,18
-14,13,4,21,-7,-10,-3,-5
19,0,-21,13,0,-2,5,78
-5,-6,-98,-23,-5,3,8,-42
14,-4,-82,-71,-11,0,1,20
11,-8,-80,-108,-13,-3,1,69
13,0,-59,-84,-3,7,6,-23
-11,53,127,127,15,-8,-10,-13
36,-68,-11,-35,-5,-3,0,18
-73,-2,43,-9,-1,-2,-4,-13
18,56,7,55,3,-1,10,21
12,-35,-117,-47,6,14,22,-13
54,13,-25,-87,5,11,18,66
-37,9,-14,-27,-11,-10,-27,-23
-67,-42,-111,-110,-14,4,11,-128
-53,12,127,127,11,-27,-32,49
27,-1,7,35,4,-1,-25,-31
24,0,-102,-64,-1,1,2,14
14,-11,-128,-128,-8,10,9,15
8,24,-43,-26,-14,-1,-2,1
-15,-4,127,127,14,-18,-11,-8
1,-39,-82,54,2,-5,-6,-23
-6,-17,4,-3,-8,-8,-2,-9
-5,-19,-66,-49,0,6,1,1
29,8,-19,-43,2,4,4,-4
-12,19,22,45,9,5,0,0
-12,-27,33,-16,-10,-5,0,-15
-1,-2,-64,-22,-7,2,-5,0
4,6,0,-2,1,-6,-5,-10
-3,-38,-18,16,-3,-3,5,81
-3,15,38,5,2,-2,-7,-4
-4,3,-11,-7,-6,-2,1,19
8,-2,26,-7,-1,0,3,-14
0,-6,-17,8,-1,-8,-7,0
4,4,19,-32,-8,0,0,4
1,-11,80,44,1,1,0,15
38,4,-72,35,20,25,26,24
13,1,73,-14,-2,-1,1,30
-60,60,19,101,14,-2,-1,-41
-32,-59,-128,-38,-30,-16,-11,-59
11,13,121,16,-8,-13,-17,-21
1,-30,-128,-111,-11,-5,-3,43
1,-13,127,127,16,3,14,31
12,31,20,70,20,11,3,36
12,40,-48,-41,3,5,6,14
-1,-34,-5,-14,6,11,12,-49
1,-7,-35,-15,-12,-9,-17,-22
-33,12,-18,-17,-1,-2,-15,-65
3,-22,-50,-34,5,5,-10,63
-3,-22,17,-2,-8,-2,6,-16
9,-27,2,9,-3,0,21,122
19,10,-4,3,0,-1,-13,-128
5,17,80,-5,-2,5,22,64
-27,3,-1,10,4,-4,-32,-48
-1,9,-128,-46,-14,-10,-6,2
9,2,32,-17,-20,-11,10,-4
-18,18,8,27,-4,-3,-4,5
-24,5,1,16,17,6,3,-5
5,-61,-56,-71,-2,9,2,-5
14,25,-22,-18,8,7,8,18
2,17,127,127,8,-17,-9,-9
-6,-36,-128,-48,-13,-9,2,-12
1,36,32,-20,-5,-7,-3,4
29,30,117,34,7,13,30,69
59,12,-48,-30,4,3,-20,22
-81,16,-128,-78,-9,0,19,-22
19,13,122,85,8,-3,-18,-42
-12,28,-24,0,5,-11,-22,-31
-54,47,127,77,-13,-12,-8,-12
-12,-93,-128,-82,-21,0,3,36
25,27,-23,-28,30,25,32,127
9,-6,24,-23,0,-4,-3,84
-12,6,-20,-3,3,-5,-10,-30
0,-2,14,67,12,-8,-2,-8
25,4,-92,-38,-25,-19,-4,-4
-24,40,127,8,-8,0,-8,2
-8,-32,109,43,-2,23,25,16
23,2,-86,72,15,4,38,52
36,-82,-68,-120,-30,-14,-48,23
-54,21,34,22,-2,-9,-9,-68
-49,-58,35,19,-1,-12,-21,21
-27,11,6,1,1,-2,-15,-92
22,40,36,23,8,5,-4,19
8,25,-54,-28,-12,-3,6,24
21,-47,-128,-26,-14,-7,2,125
52,30,72,42,11,16,112,127
-99,-33,-128,-95,-7,-3,-13,41
-49,-12,120,13,-2,-5,-61,-41
-5,-27,23,64,2,-11,-9,-10
14,26,-124,-34,0,0,12,26
14,14,67,83,10,1,9,9
-8,-42,-128,-79,-12,-2,10,27
7,-46,-117,-55,-16,-8,-5,-5
-35,-15,-25,-22,10,7,23,40
31,26,86,66,5,0,-11,-21
4,60,100,52,1,-1,-4,-6
23,27,-31,5,6,-1,14,86
-4,46,-48,-16,-1,7,1,-128
7,64,-1,-7,4,5,14,88
-10,-17,-78,-86,-21,-10,-40,-87
-7,15,30,-7,-1,-3,6,-21
-9,-30,75,22,-5,-15,-34,-64
-7,-55,37,57,-5,-15,21,0
5,-8,-48,5,-8,-12,-35,-11
6,3,-19,-65,-35,-5,4,-13
-14,-5,-93,-34,16,5,-1,-4
21,17,-6,25,7,6,9,6
16,53,87,35,6,8,22,60
-20,-23,-26,-58,-1,-8,-41,-128
16,-1,127,49,-5,1,55,127
-16,-92,-91,-40,-20,-19,-73,-128
85,-28,-128,43,6,12,114,127
-103,10,-7,-65,-16,-23,-105,-128
32,22,81,59,-1,3,18,119
10,39,-38,27,8,3,-24,-2
31,-1,-128,-100,-2,12,3,26
-3,2,101,40,-4,-10,-12,4
1,-51,65,93,12,-7,10,-6
-4,29,-47,-13,-1,-1,4,22
13,36,-24,3,3,3,-2,-11
27,-49,-55,-40,-2,5,54,97
-46,-63,-20,-27,-21,-21,-45,-128
-41,22,-42,-19,2,3,-42,-86
6,14,13,-13,4,3,15,-9
-17,1,-44,-48,-26,-9,-5,-37
3,-18,81,74,-5,-18,1,88
15,35,-55,13,9,-1,3,-28
6,58,51,-15,6,6,16,-54
-24,-88,-57,-43,-12,-13,-8,-49
7,-20,23,0,-5,1,-24,-10
9,9,-49,-3,2,6,5,-12
-7,-13,69,29,0,-9,-4,-8
6,-27,-115,-64,-8,5,8,15
12,27,113,-5,-4,-8,-9,36
-8,36,-24,57,6,-2,-16,32
2,-37,-41,12,-7,-6,27,37
16,67,127,32,5,1,-28,-32
-66,10,80,54,3,-5,-7,46
-20,-57,-128,-63,-19,-19,-13,-36
12,-20,-128,-75,-6,10,3,-7
5,-14,5,-52,1,-6,2,24
-25,17,23,28,2,5,16,3
9,10,-13,-18,-4,-6,-9,14
12,16,-8,21,7,0,-8,-49
5,-10,-23,33,7,-2,-1,-49
18,23,70,57,-10,-4,0,9
4,11,-12,-65,-7,3,2,24
-12,-12,-16,8,3,-1,-34,-104
-6,-10,-50,-20,0,-2,39,127
-16,5,-23,-17,-4,-9,-89,-128
-38,-78,20,1,-12,-10,-8,-2
17,-28,-128,-81,-2,11,17,58
3,-27,127,25,2,-5,-8,11
-8,-35,-61,121,7,-11,-9,1
39,-30,-59,-8,-8,-1,7,26
-1,46,-18,6,8,7,18,30
-30,-76,-15,-61,-7,-1,13,-41
8,43,22,-10,4,1,-20,49
15,35,127,30,-5,-4,-6,-9
5,3,-80,39,6,-2,1,-9
9,12,23,29,8,0,2,3
17,15,7,-48,2,6,13,16
2,-11,-23,16,13,6,-1,1
19,17,8,-57,-12,6,5,-2
7,27,-7,14,-1,3,7,52
-34,-47,65,6,-9,-5,7,-23
-1,-57,15,52,11,-14,-20,105
7,3,-45,-10,-6,-2,-7,-49
4,9,-19,-21,-2,-2,5,-3
5,1,-57,-26,-4,4,4,7
-35,8,53,8,-4,-7,3,3
27,78,127,99,18,9,19,127
0,-21,34,-47,-21,-9,-16,-45
-30,-18,-3,32,0,0,13,52
33,-42,-128,-78,-15,-15,-52,-73
-8,2,42,-1,3,4,16,58
6,35,-19,-36,-10,-1,-12,67
-30,25,-3,-23,7,6,7,-11
46,-13,-6,53,12,0,11,93
-43,-64,127,73,-7,-16,-30,-29
4,11,40,35,1,-2,6,6
8,7,-91,-76,-12,5,10,11
10,-26,-51,20,1,2,2,5
-6,-88,70,10,6,0,0,-3
2,14,-10,-2,-9,-8,-4,-4
2,40,10,-4,6,8,4,-4
-7,-25,-71,-40,-7,-5,-5,-13
-2,-2,73,0,-2,-3,-1,58
7,8,12,39,-6,-8,22,127
-9,-5,-40,1,-10,-11,-39,-57
19,-9,-42,-85,-3,4,-20,-62
2,-1,-11,28,2,-1,-2,-72
-15,40,103,57,11,1,0,5
-4,-54,-13,-4,-5,0,37,38
28,1,-18,24,-1,-1,-25,-15
4,47,16,4,12,-2,-3,5
-35,-55,-49,-18,-15,-3,-1,-54
8,-6,-24,-39,-7,-5,-6,-21
8,6,18,10,2,-4,-3,36
8,5,-26,-24,-4,0,-3,29
2,29,-18,-8,-2,-1,1,2
4,14,44,-13,-7,-4,9,8
57,3,-123,-81,4,8,5,40
-5,27,21,-11,7,1,5,45
-30,-1,127,127,10,-16,-13,-48
8,-25,-128,-64,-5,-2,-4,13
4,-6,-43,-51,-6,-2,-11,17
7,-5,-53,-30,-5,1,5,6
8,3,-12,-9,1,7,20,48
2,-1,-30,-19,-1,1,-8,-10
15,38,-40,-91,-4,3,4,45
82,9,39,-15,-1,-3,-5,-38
-128,30,127,127,-3,-15,-8,-43
-8,-69,-15,-26,-12,-6,-4,-5
-23,-3,-31,-5,-12,-2,0,-16
16,16,2,-41,-11,4,8,24
7,15,20,-30,4,2,-4,12
-1,-114,5,13,7,3,-1,-19
16,20,47,16,1,-3,4,36
-24,5,-18,-23,-8,-4,-12,-64
16,12,9,22,6,3,16,52
-17,13,72,28,-1,-7,-11,-73
13,2,-40,-3,-1,2,6,75
19,15,37,15,5,-1,6,-9
-9,2,-5,2,-4,-5,-11,41
-16,-47,-43,-57,-16,3,1,-60
-1,-16,-115,-90,-8,-1,-5,39
5,-17,50,36,8,-1,11,-7
18,42,59,115,-2,-7,9,52
-50,15,127,93,-3,-14,-18,-23
-44,-11,-56,-36,2,8,9,-41
6,30,-17,-31,2,2,5,-21
13,-34,-30,-10,3,7,18,127
1,5,-17,-23,-3,-2,-5,-45
19,5,-23,-22,-5,1,2,-2
0,10,13,0,2,1,2,25
12,12,-19,-3,-5,-2,-4,36
0,-16,-59,-6,-1,-2,-6,99
2,10,21,-1,-1,4,1,-8
2,-7,-28,-18,0,-4,-6,33
6,5,63,43,0,-7,-8,0
-39,-24,92,40,-4,-14,-8,-10
9,3,-23,32,4,1,5,20
5,0,-69,-16,2,11,7,4
4,5,-17,-60,-14,3,22,113
-9,-22,29,-35,-5,-4,-44,-46
11,-21,-128,-40,0,-1,1,4
4,74,76,24,1,-2,7,25
4,-28,127,44,-4,-11,-27,14
-26,-128,0,54,-8,-15,0,-1
10,59,-1,11,2,-3,-25,-44
-14,-75,-128,-74,-16,-3,-4,14
31,41,3,-29,12,13,18,127
-10,-4,-92,-42,-12,-8,-9,-34
19,25,53,72,1,5,-1,19
4,2,4,-29,-10,1,-2,6
-4,7,32,-4,2,-7,0,2
1,23,62,3,1,5,5,6
3,22,-28,-8,5,5,19,-7
-1,-1,30,-22,-5,-6,-15,-20
1,-5,42,21,-4,-4,-3,85
0,6,-12,-14,-5,-1,2,-23
-1,8,40,26,7,1,1,39
1,-8,6,3,0,1,-3,-19
1,3,-14,-13,2,2,2,3
-20,22,-14,15,-4,-1,2,-52
-36,32,21,3,-5,-4,0,77
-6,-38,48,5,-4,-3,5,-55
1,12,7,1,-9,-10,-26,-51
7,5,20,-16,-1,0,4,13
-5,11,-50,-10,4,7,9,37
6,20,-16,-20,0,-2,-1,-2
-4,-3,121,53,-5,-10,-7,-4
-9,17,67,-4,12,0,-1,0
-10,1,-98,-50,-20,-9,2,4
-2,3,23,-6,-1,-5,-18,-128
8,5,-48,-9,-11,-1,18,88
-3,-25,13,-39,-13,-12,-37,-128
8,2,18,19,3,4,6,11
6,-48,14,9,-7,-7,-2,17
-5,34,72,-9,0,2,-1,-13
3,9,-30,52,2,-9,-7,10
5,10,1,-17,6,2,0,-7
-10,0,-24,-14,6,7,-1,-2
8,-11,-16,6,6,4,5,14
-6,24,35,-39,-12,-1,8,-4
-26,-8,-100,-34,-5,-2,1,-52
-1,7,119,37,-1,-6,-9,-36
-8,12,-4,11,-5,-6,5,19
19,-19,-20,-7,5,6,-12,-38
-3,17,-7,-8,1,2,0,2
2,-40,-89,-9,0,4,15,20
19,-30,-6,5,2,2,-2,11
-29,-6,-88,-81,-8,-5,5,13
24,23,16,-5,-2,2,14,19
-42,2,127,105,-3,-16,-20,2
-7,29,64,64,4,-3,-4,-24
9,8,-76,-31,-5,1,12,20
4,-41,-36,-9,1,-4,-17,-34
22,5,-33,-13,2,8,-2,28
-6,12,-35,-17,2,4,0,-3
-7,7,-6,-27,0,-2,0,2
8,-1,-9,-21,-4,-3,13,20
14,37,23,-16,2,0,-8,4
7,50,5,49,6,-1,-1,31
-77,-80,13,-16,-19,-22,-17,-22
6,20,4,6,1,4,-8,-120
-4,-40,4,15,1,2,4,1
-8,5,8,2,-2,-6,-2,20
-11,3,-8,-5,-1,2,-6,-16
-29,30,41,19,2,0,-7,8
7,3,-2,-28,-4,-1,0,4
7,8,11,13,1,1,-3,13
5,-13,-65,-42,-8,-2,-1,5
2,25,25,-16,1,2,1,2
-3,31,88,45,-3,-7,2,-2
-2,-5,25,-6,4,-1,0,-7
-4,-55,37,7,-4,4,4,15
0,11,-52,1,0,0,5,3
-6,-4,25,26,-3,-4,-11,-40
5,8,2,19,12,8,5,1
6,7,-79,-47,1,4,9,2
-6,-5,81,-9,-5,-4,3,28
-3,-3,-14,13,-1,-1,-2,-25
8,21,54,-5,4,1,-5,38
-8,-33,-15,33,-5,-4,-4,-19
-13,-51,58,23,-2,-5,0,9
8,21,13,-4,0,3,-13,-38
27,3,-13,-15,1,4,16,94
-67,35,1,-10,0,-4,-23,-10
5,-22,-46,-21,-14,-4,-4,-1
11,3,-11,-13,-6,-1,9,20
11,11,-7,3,4,0,3,6
14,-16,1,5,1,7,15,83
49,22,-115,-37,5,4,20,97
-70,-18,108,-68,-15,-9,-32,-128
-8,-1,127,127,-8,-19,-14,-45
-6,-15,-50,34,6,-4,1,10
11,39,-105,-40,-9,-3,-7,-49
3,3,-21,4,0,1,7,35
-1,-40,-47,-57,-9,-6,-13,-26
-1,-3,-35,-16,1,2,1,0
5,5,17,2,9,4,7,4
2,72,39,21,4,-1,-4,-20
6,-50,39,-1,0,5,10,-2
25,-41,-15,-8,-7,-4,19,51
-41,-37,-73,-20,-10,-8,-51,-128
-27,2,-17,-38,-8,-1,-10,11
-2,1,25,22,6,1,10,17
1,12,-37,-46,5,4,-30,-128
11,26,96,124,6,-4,4,9
-11,-128,-66,23,3,-3,-1,-2
-1,18,127,29,-5,-9,-6,-2
-7,8,-64,-29,-6,-4,-1,1
39,10,19,16,-3,-1,4,45
-51,-33,-4,-54,-1,5,25,5
4,6,-9,15,4,0,-20,-28
10,17,90,14,4,-1,-3,50
-10,7,-62,-19,-6,-2,-3,-10
14,-87,-100,-62,-6,0,7,74
-22,-2,66,-7,-11,-8,-1,13
-6,28,48,58,7,-5,-31,-16
2,14,49,78,17,-1,-6,0
5,10,-24,-38,-7,-2,0,1
-5,-60,17,-34,-6,7,3,3
6,3,-19,-15,-1,0,5,2
14,-3,-10,10,-2,-1,0,5
8,12,-3,-7,6,-2,-1,0
-47,7,-26,-12,6,10,3,9
10,-15,-42,-28,-2,0,-3,25
43,31,-6,1,7,8,10,-33
-70,-6,127,63,-8,-11,-10,-9
7,-3,-2,39,-12,-11,-1,5
-3,-31,-66,3,-7,-5,11,31
22,39,-100,-61,-7,1,3,22
9,-56,-41,-58,3,7,7,18
44,4,124,53,7,-4,-5,-40
3,43,33,0,-3,1,7,47
-29,-17,-10,16,2,-3,-10,-90
3,30,14,4,1,-2,-11,26
-6,12,20,-14,-3,-2,-8,-7
11,24,-11,-5,-2,-2,0,12
10,-8,-6,0,5,3,-2,16
5,-8,2,-2,1,1,21,83
-7,2,-25,-24,-11,-5,-6,-86
0,-8,32,-20,-3,-5,-8,-32
3,7,4,-6,1,-3,7,30
-14,18,31,21,-6,-11,-11,-25
30,32,7,49,6,6,28,97
-3,12,-6,9,3,-3,-15,105
32,8,-11,-21,3,7,2,62
5,-17,-76,-25,7,3,1,127
-24,-31,44,-9,-10,-8,0,-85
24,2,29,48,-1,0,5,79
53,-1,-24,-28,-4,4,32,127
5,8,11,-18,-6,-5,-12,28
6,2,-46,-8,-12,-5,-5,-96
44,53,81,17,-1,-1,4,86
-22,6,-80,-42,-2,-2,-6,-9
-7,-31,91,52,3,-3,1,11
-9,33,33,52,3,-3,3,3
6,-1,26,5,-4,3,17,24
2,4,-64,-33,-5,-3,-11,-4
19,1,21,-11,0,0,11,22
5,17,-20,-19,-5,-1,-8,-1
-14,-23,-94,-38,-1,-3,2,-17
6,11,-28,-9,-1,-1,12,13
-13,10,55,14,-2,3,-5,15
2,23,7,-4,6,8,11,69
4,-50,-49,-1,-11,-10,-15,-103
-1,17,17,18,-6,-10,-42,71
52,-2,-76,-6,1,-6,-22,51
-114,-62,40,30,2,-4,-5,-53
7,10,-3,-4,-7,-4,3,14
22,4,-7,-4,6,3,3,20
14,23,38,10,7,3,11,35
7,33,53,4,-9,0,-5,-8
-11,-108,-58,-27,2,-3,-1,-60
-17,-2,4,-2,-9,-6,-7,-42
26,-3,-17,-19,-3,1,2,39
-10,-1,-31,-28,-9,-6,-27,-128
7,2,7,8,4,-5,-6,-13
-28,-44,-35,-6,1,4,5,9
5,5,-60,-58,1,7,2,2
-7,35,127,44,3,-4,-3,0
-8,-8,-49,0,-2,-1,-6,-17
12,21,87,51,3,-3,12,26
5,78,43,6,-4,0,9,27
-28,-81,-25,-2,-3,-5,-7,-22
-4,-20,-103,-25,-4,3,-10,-38
7,-2,-95,-40,6,7,11,3
2,7,100,-7,-6,-7,-14,-126
-14,0,-6,27,5,5,5,-47
4,-3,-11,-30,4,6,9,50
-7,58,81,48,0,-10,-13,-48
2,14,-6,26,5,1,0,-7
6,-37,-9,4,1,8,-1,41
-9,-3,-40,5,0,3,31,8
5,9,-19,-6,9,0,-28,11
-15,1,-75,-31,-12,-4,4,-115
-18,-12,30,-6,-8,-7,-21,-60
26,24,-19,-27,-4,-3,2,100
39,10,55,40,3,-3,-1,-16
-82,-3,-27,9,-11,-10,-7,-76
-1,-10,-4,-27,2,3,-2,-77
-1,-9,18,-21,-5,0,-6,-35
14,53,-39,8,10,8,-3,31
2,-28,120,21,6,4,14,16
-27,-9,-12,-38,-15,-13,-11,-8
9,6,59,39,-10,-6,5,30
4,38,8,29,6,3,14,58
7,-29,-52,-3,-1,0,-17,-59
-19,14,-45,2,5,0,6,-102
17,-8,88,-16,-1,-5,-6,28
4,-9,-53,-9,2,1,-3,-19
3,8,-40,-27,-7,-3,-1,2
-13,-3,71,16,-1,-4,-7,-11
-2,-16,-3,12,-1,1,-2,4
2,4,-43,-18,-5,1,3,33
4,-9,47,7,-1,-3,3,0
-35,-6,20,24,-3,-10,-13,3
24,31,26,-10,-1,0,4,5
-22,-26,-87,7,9,17,10,9
-9,8,44,-34,-13,-5,-5,20
9,25,6,-11,8,4,7,23
-1,11,-4,-15,-2,-5,-7,-33
-14,-38,77,33,-13,-12,-8,-8
4,-8,0,-23,-2,-1,15,39
-8,10,127,104,0,-11,-26,-43
-2,16,-54,-9,-10,-9,1,-4
9,14,-76,-50,1,2,-4,8
2,6,-49,-33,-1,3,0,47
-11,-48,-23,-25,-4,0,-7,-59
-1,38,27,13,-9,-6,-1,-10
-5,-3,-50,-72,0,2,5,-14
-11,-25,119,64,22,1,0,27
-1,-6,109,127,0,-12,-13,46
-6,3,-72,-37,-9,-1,1,-42
13,1,-26,-27,-7,0,5,43
10,17,-38,-26,-5,-4,-3,-73
-32,-47,-44,0,12,0,2,-4
-8,24,-29,-2,-11,-8,-18,-36
27,19,40,-64,-6,9,13,7
-5,-13,-17,-24,-7,2,-7,48
14,52,127,17,0,-1,36,92
-22,-85,-65,48,-4,-12,9,13
-41,-32,-65,28,4,0,-16,109
-10,-11,12,-15,-7,-11,6,66
4,11,-42,-19,-4,2,-10,-12
-4,3,-24,-28,-5,-8,-11,-1
12,0,23,11,8,7,15,27
1,8,-56,-39,-5,-4,-7,0
-5,-1,46,54,6,-5,-9,-22
2,-11,-12,-28,2,3,2,-3
-8,32,104,-5,-14,-5,-2,-10
-1,2,24,48,4,-2,2,-3
5,14,-10,8,-1,0,6,-11
-12,-23,-30,-18,-4,2,6,18
2,-10,-90,-48,0,-1,1,6
5,69,-41,-44,3,3,3,-2
-12,-9,92,82,-7,-11,-7,-11
-15,-42,18,27,-10,-11,-7,-13
-2,21,-11,28,-1,-1,1,11
4,3,-39,-20,-4,0,4,-19
-3,0,-24,-26,0,1,4,-9
11,18,-15,-23,0,2,4,-13
-9,-8,-10,-21,-8,3,6,2
3,-24,-16,-20,-4,3,-3,38
6,14,-7,-11,6,2,3,13
-2,-25,14,28,0,-4,0,3
9,-7,-36,-29,-5,1,20,127
-21,4,-17,-8,-3,-8,-8,-57
20,-45,9,1,10,8,27,43
-3,48,9,17,-4,-2,-10,0
-3,22,30,6,3,-4,-9,16
6,17,46,36,6,2,6,12
3,11,-5,-9,-3,-1,5,1
-2,6,24,3,-1,2,3,14
-5,12,7,10,-6,-4,-5,-24
21,42,-17,-18,-2,-2,5,-2
-10,-23,27,-20,-5,-2,-7,-28
-1,23,-11,-24,-2,1,2,-9
38,-1,-16,-13,1,-1,9,39
-19,8,43,16,-4,-6,-11,-59
-22,-13,-8,13,-2,0,-3,-84
6,1,-23,-16,-6,-4,2,-10
8,4,16,-1,2,1,-7,-17
17,6,38,-19,-8,-3,4,5
5,-62,-20,16,5,2,4,6
-33,10,-83,-22,6,3,8,6
-4,-4,-67,-67,-18,-4,-6,-5
-5,-6,112,66,4,-5,0,-5
6,29,60,54,5,-5,2,47
0,-19,-7,22,6,-4,-1,-17
0,5,5,-12,-4,2,-4,-3
10,6,-63,-85,-9,9,25,47
-4,22,-36,-22,-5,-6,-20,83
-6,-35,-13,2,-1,-8,-18,46
-2,25,42,36,8,3,3,-37
-6,-71,49,12,-8,-3,1,-1
-4,0,-70,-10,-4,-2,-2,83
0,-11,2,-6,-5,-1,3,23
0,-6,-92,-42,-4,-1,4,13
-4,-5,-16,-42,-1,0,-1,-6
-5,-3,127,103,-6,-6,-3,-7
8,48,127,65,-1,-2,-1,-1
-4,-23,-35,-14,-2,-2,0,1
-6,5,-89,-25,-3,-1,-2,67
2,16,-25,-28,-6,-1,-7,-57
1,12,18,-11,-7,-9,-6,21
-29,-47,-33,10,7,0,14,43
-1,5,-14,-6,1,-3,-6,-15
8,34,-3,-53,-13,6,3,5
4,8,61,22,9,5,4,5
0,24,-12,-28,-9,-4,6,12
-3,-59,-93,-10,-8,-1,9,-19
0,19,21,6,3,5,7,14
-8,-8,-23,-1,1,-6,-19,-52
-14,4,35,43,3,-6,-7,-40
18,35,-49,-9,2,4,15,38
-1,15,17,-2,-4,-3,-9,-14
-20,-41,127,24,-11,-7,-19,-128
-12,-26,-35,3,-9,-4,-4,-3
4,11,-58,-24,9,4,11,30
-3,-9,-17,-21,-3,-4,-9,-31
11,-7,9,9,5,6,-4,-6
-4,4,15,3,-4,-5,13,64
-1,37,15,18,7,-5,-3,-8
7,19,-16,-11,-2,2,6,30
11,-1,-2,4,-3,-1,-3,2
-65,-49,-68,-109,-2,6,-12,-25
5,5,11,-6,-11,-4,0,-2
7,31,118,127,18,-5,4,6
10,15,-28,-7,1,0,-17,-37
2,-5,28,7,-8,-6,-4,-12
-10,-59,-34,-26,-6,-7,-2,-12
2,11,-1,-4,2,0,-4,65
47,12,16,3,4,3,3,-70
-43,6,-43,-28,-8,-8,-2,39
13,38,21,6,7,11,8,24
4,-10,28,25,1,-2,-8,3
-5,13,-128,-92,-22,-6,-2,4
-5,-14,26,58,13,-5,-4,-6
4,-4,32,42,9,2,1,1
8,9,-21,-45,1,11,9,1
-7,-34,-8,-30,-15,-7,4,51
-25,27,109,119,2,-11,-13,-128
10,-33,-49,-19,-7,-3,-12,28
3,-72,-8,-20,-10,-9,-3,3
23,24,-29,-17,4,7,3,12
13,4,36,-32,8,11,2,-21
-35,22,-47,-15,-5,-5,1,-19
-13,-12,-96,-39,-1,-1,-5,11
6,-15,59,-36,0,2,9,6
-6,2,127,127,11,-11,-12,-15
-18,-37,-128,-36,-15,-16,-11,-18
11,28,63,32,-4,-2,6,5
9,8,8,12,6,4,-7,-5
5,7,-18,-41,-4,0,3,16
8,24,-48,-15,4,4,-2,-23
0,-11,-32,-11,-3,-1,1,8
-9,-45,-10,-17,-8,-3,-6,-7
-12,-10,-24,10,15,0,-6,-16
2,24,-15,-26,-1,5,3,-6
-7,4,6,11,0,4,-4,-8
28,25,27,24,6,5,22,127
-12,-12,28,20,-7,-7,1,47
-4,9,-1,-9,-4,-7,-48,-25
8,25,3,-3,-4,-3,-7,17
5,31,-21,-7,-1,4,6,-3
-26,-82,7,-18,-8,-8,3,24
8,22,6,-4,2,-1,-5,13
15,18,1,-28,3,3,2,50
-28,-6,-109,-38,-4,-1,-9,-62
-8,-13,127,71,-13,-15,-9,-8
-7,9,-42,17,-2,-2,4,-2
4,21,-11,57,10,5,-5,-24
0,-15,-10,-33,-9,3,0,-13
0,-30,-8,-23,-5,-1,-5,6
3,-38,-51,-30,5,0,0,5
1,-6,-11,38,6,1,-3,-6
0,-1,15,-35,-10,-2,-2,-4
-6,-9,34,-38,-19,-8,-1,-13
-1,-21,-30,39,-2,-4,15,10
-5,27,55,13,-3,-1,-13,-36
-24,1,-62,-16,-5,-9,-26,-32
-10,6,42,7,-6,-6,-1,-7
12,5,20,-31,19,16,2,-1
3,-13,-36,19,-4,-6,-2,0
-12,4,35,-3,1,-1,0,-1
-3,11,-21,-18,-3,2,3,-1
-9,-37,-2,50,2,-6,-19,-47
6,-24,-37,-8,-1,1,29,127
-20,1,-46,-16,3,1,-35,-128
14,16,-73,-34,-5,-4,-3,70
-27,15,40,-8,-6,-4,2,21
0,38,-29,12,17,1,-4,7
-12,-74,45,43,-3,-3,-5,0
6,12,-18,-19,-4,0,11,8
2,18,13,-7,2,-2,-15,3
-2,15,-13,2,-6,-5,-1,-24
2,-7,-22,-15,-8,-4,-15,-35
-8,-3,-28,12,6,-1,1,-1
7,-12,-63,-39,-12,-1,-1,-10
-2,24,37,-47,-12,-1,-2,-2
-7,-14,55,51,10,-1,-1,-6
1,26,-35,25,1,0,1,-2
8,-22,-50,-40,-8,-5,5,13
-14,-34,82,46,1,-5,-8,-11
-8,38,41,36,-1,-1,-1,-7
2,-37,-25,-38,-7,-2,3,21
2,64,33,-2,6,1,-5,-70
12,-17,23,15,5,0,1,12
-17,-23,-49,4,-10,-11,-11,-72
10,-25,-128,-29,-3,6,33,15
-12,1,9,-27,-3,-4,-29,0
7,16,9,-2,1,3,15,62
-3,23,55,14,2,-3,-47,-128
10,4,-4,9,-5,-6,2,40
-28,9,16,8,1,-3,1,13
-2,-23,-27,-13,0,3,9,-13
9,2,-53,-50,-9,2,6,18
-5,16,127,54,-2,-3,-5,-100
-4,9,-21,23,10,-1,-2,-9
-10,-3,45,30,3,-7,-2,-23
7,6,-32,4,5,3,0,-7
16,-12,3,-47,-11,1,1,41
-26,-29,-11,-24,-28,-10,-5,-18
3,4,-60,-48,-6,4,2,0
7,5,53,25,4,0,0,-2
-5,-3,-53,-26,0,-3,-6,-10
-2,-8,4,4,-1,-4,1,2
-3,-12,-49,-22,-3,-3,-7,-11
-21,18,-4,-6,-4,-5,-5,-5
1,-56,28,2,-2,-2,-9,0
27,23,-59,-20,1,8,20,14
-15,-3,37,9,-9,-11,-11,-6
-11,7,-15,26,5,-2,-3,-5
11,-3,24,7,14,3,25,23
-19,28,35,16,-8,-8,-12,4
-2,-21,10,26,-7,-4,-7,-78
13,44,7,-30,3,8,7,38
6,-76,-16,14,-4,4,-4,-52
-9,-12,11,-35,-2,-5,-2,28
-3,0,-14,-2,-6,-2,5,3
-10,17,-9,-54,-13,-5,-7,-19
30,0,10,41,-1,-1,5,66
-37,-57,6,6,-1,-1,-15,-119
-2,16,17,33,6,-6,-5,9
4,19,14,-23,-11,1,-2,-42
4,7,12,-43,-7,3,3,68
-6,-49,9,9,3,3,5,-7
-1,36,5,15,5,-1,5,12
-5,8,34,22,0,-4,-19,-9
-6,13,-45,-19,-2,-2,1,-52
3,5,-48,-14,5,5,1,-15
1,-5,29,-6,2,-1,-14,54
-10,-75,15,21,-10,-10,-10,-3
-6,1,-10,36,2,-1,-3,20
12,30,30,10,2,2,5,-60
2,9,-42,-62,-1,6,3,4
-8,-8,21,-1,-4,-1,1,-3
1,-38,80,69,10,-4,-11,-24
0,14,-9,1,3,0,-2,-49
8,19,-48,-20,1,0,-7,-87
-4,-7,-51,-62,-18,-4,-7,-51
-7,-51,-48,-22,-4,-3,-5,-2
-3,-43,44,19,0,-5,-4,3
2,16,42,26,-2,-5,-3,-10
15,51,28,-27,-10,6,2,-2
-5,-31,-79,-84,-10,-1,6,-12
-10,11,15,35,1,-4,-18,-2
8,20,62,57,4,-5,-1,-3
3,2,-32,-7,7,2,10,57
-11,-19,-38,-4,-4,-5,-2,-39
5,18,43,23,-2,-2,-3,-26
19,45,-11,-12,1,8,8,83
-6,-19,-42,17,11,3,1,-13
-30,-7,-91,-114,-11,6,4,-1
-1,-56,53,65,-1,-6,-3,-8
-5,37,29,11,-6,-10,0,20
-4,-16,-52,-37,-19,-12,-11,-92
-3,-11,15,21,10,-2,5,52
-4,3,-20,7,4,5,-6,-99
0,-23,-21,20,6,-2,-1,-1
7,22,0,2,1,-5,1,3
-6,-43,-44,-93,-20,1,-4,8
-8,-5,32,16,8,5,7,-18
10,9,59,36,-6,-9,-14,36
-9,4,14,-7,-9,2,3,-45
-11,9,5,-6,-10,-11,-9,-17
8,17,-24,3,-4,2,3,1
-10,-48,-34,-12,-1,0,13,101
-5,-14,-41,2,6,-5,-17,-1
6,-3,-8,-21,-7,1,10,34
-1,-15,14,7,-4,-5,1,-21
6,-16,-49,-7,0,-2,-12,-14
33,7,5,13,7,2,1,23
-10,-8,-33,-2,-8,-6,-2,-4
-9,-54,4,18,5,2,3,5
4,15,24,-19,-5,-2,-3,-17
7,7,14,41,-10,-6,1,47
-13,-16,-39,-63,-4,-1,-4,-93
0,33,4,-13,0,-3,-8,-110
1,16,11,-3,-10,-6,-4,8
-4,-35,-41,-29,-8,-7,-3,5
5,52,-15,-8,7,4,1,6
-1,8,47,62,17,5,4,13
-7,-10,-9,-20,-4,-6,-12,-7
16,69,34,3,6,5,12,96
-14,-52,-60,-24,-1,-4,-11,-31
-11,-24,-20,-10,-6,-3,-8,5
-8,-13,58,46,-15,-16,-4,4
0,33,38,44,14,-3,3,2
-4,-23,-110,-51,-10,-6,-2,-2
4,22,-10,-10,6,11,0,6
11,5,0,-67,-19,1,10,5
6,34,-24,-31,2,-7,-9,-2
-5,-43,71,25,0,0,-1,-4
-11,-5,81,83,8,-6,-8,-5
3,-3,-28,-29,-8,-7,-4,-4
2,-23,31,43,10,0,6,17
7,6,-33,-18,-4,6,4,-6
17,23,5,-25,-6,3,4,127
-49,19,1,1,3,3,15,-111
-10,-58,-14,-4,2,-1,-17,26
1,12,-55,-29,-3,2,-10,-104
-9,-65,29,-14,-4,-2,4,3
7,3,30,1,-10,-6,3,5
2,-5,-23,-12,3,2,1,-7
-10,-32,55,33,2,-3,0,8
10,57,41,30,3,2,-10,3
4,2,-1,26,-6,-3,-1,1
-11,-5,-26,-12,-1,-1,15,-15
-14,-80,-47,-46,-3,-4,-18,-27
-1,0,17,1,-3,-5,-11,-8
1,4,28,89,8,-1,0,2
4,-3,-54,-47,8,8,9,0
-1,19,14,-56,-15,-6,-3,2
1,13,15,3,1,2,2,-6
-13,-24,-57,-11,-6,-7,-8,0
-1,-13,-7,-29,-5,-1,-3,-3
14,25,30,27,10,0,-2,-1
-18,16,-4,-26,-9,-3,6,80
5,97,-11,15,11,6,5,-3
-10,-30,9,-24,-5,0,-8,-7
2,7,18,-24,-1,-2,0,-1
-16,2,111,26,-23,-18,-14,-18
6,19,10,88,10,0,4,23
5,-16,-4,5,25,7,-4,-25
-6,6,18,-22,1,6,-2,7
-2,-3,-128,-34,-2,-1,-10,-100
3,3,98,-12,-15,-11,-8,31
-10,-10,15,25,2,-3,-16,-57
0,-19,-112,-13,1,-3,0,17
1,14,36,-13,0,0,-2,3
1,3,53,29,1,-2,3,-6
5,-25,-3,4,1,-1,5,50
-2,39,22,5,5,5,-7,26
-19,23,-15,0,-5,-3,-18,-128
-9,-39,-79,-36,-7,-1,5,13
3,-20,-6,-14,-1,-2,3,-59
-10,-27,49,25,-7,-9,-12,-28
-32,21,-28,-49,0,1,4,-14
9,10,30,22,1,-4,-14,21
5,5,3,59,7,2,11,-3
3,-11,2,-21,-4,-2,-12,34
-1,3,-11,-15,-5,-7,-6,-20
16,16,19,15,4,4,10,17
-5,30,19,-19,-3,3,-5,-3
3,-4,-93,-54,-14,-2,1,2
-5,6,-70,-34,-3,0,-1,2
-26,-98,87,14,-4,-8,-8,-23
19,12,17,61,1,2,8,36
-6,19,-17,6,-2,3,-4,-121
10,57,8,-10,-1,4,1,4
-8,-74,-92,-16,-2,-10,-6,0
4,8,20,-19,-11,-5,0,9
1,24,66,30,-12,-4,5,4
0,19,-12,-3,-5,0,-10,-6
12,8,9,-10,10,5,4,7
-14,-72,-42,-78,-22,-14,-8,-12
-3,0,-37,-8,2,4,-9,12
-5,-38,33,14,4,2,-5,-19
17,14,66,14,-1,0,7,87
-5,-5,-98,24,-1,2,6,-98
-31,-19,6,-3,-4,-9,-28,-24
-5,17,22,-9,-8,-7,-15,7
-5,9,19,-11,-1,-3,-6,-53
-2,-19,-54,-21,-2,0,4,11
-2,68,91,60,4,-1,-3,-81
-5,-4,32,52,8,-2,4,-4
-7,-51,-14,23,-7,-10,-7,5
5,-9,-51,-63,-3,2,5,26
-7,-1,-20,-48,-13,-2,-9,-89
-4,1,2,-17,0,-5,-8,7
5,7,-23,6,2,2,4,1
-2,4,3,23,-5,-8,-1,12
3,22,34,33,11,1,10,34
-10,-1,-10,5,10,-2,-15,-47
-1,-3,-4,-42,-20,-8,-11,-3
2,7,2,-9,-9,-4,3,1
7,-32,6,27,25,7,8,18
-28,-43,-56,-56,-5,-6,-15,-120
0,24,35,98,8,0,17,5
0,27,72,-18,-15,2,-14,3
-5,-24,-20,-31,-7,-3,-6,13
5,6,-34,-9,2,1,7,14
16,23,-39,10,9,1,-2,3
-9,-28,-10,-31,-9,-5,-2,31
-26,-97,-73,-15,-8,-8,3,-7
6,2,84,15,-3,-5,-10,-21
2,12,1,31,1,-2,-3,-6
-9,-9,-32,-9,-7,-3,1,28
22,9,-1,2,4,2,6,-37
2,0,0,1,0,-1,3,-13
7,9,-3,-9,3,-1,-7,69
-4,-1,9,-17,-1,-4,-1,-11
7,4,-22,-11,1,-1,-1,5
-9,-39,-68,-7,-2,-1,-1,-35
6,25,64,8,5,5,7,7
3,7,27,36,2,3,2,12
-3,10,18,19,1,0,-3,12
8,15,-30,-12,3,2,20,43
2,13,-24,-40,-6,2,2,33
-13,-20,1,5,-5,-7,-6,-37
2,7,6,14,6,3,0,-35
4,25,42,25,-1,-4,-5,-31
0,-13,32,29,-1,-6,-1,27
-34,23,-26,-21,-7,2,5,0
23,21,-10,-28,2,6,9,10
2,32,-36,17,12,5,-6,33
-3,-44,-12,-20,-7,0,-1,-13
9,2,-36,-26,-15,0,9,13
-7,-5,-67,-44,-2,-1,-15,-8
-13,37,32,-17,-14,-12,-13,-17
-5,-1,44,62,5,-4,6,-12
8,6,-13,5,1,5,2,-4
13,46,-72,-52,3,3,10,19
-10,25,112,23,-5,-11,-15,-19
-2,7,115,39,-5,-6,-6,-5
-10,-15,-29,-32,3,5,0,-6
-2,-8,-9,0,-5,-3,-2,3
3,15,-83,10,-1,2,11,78
-1,-12,30,9,5,3,-11,-93
-41,-2,0,-8,-7,-9,-44,-128
8,-5,-26,-44,-10,-5,6,70
-7,2,1,-8,4,4,-7,-4
4,2,15,14,-6,-4,0,8
-5,27,0,23,3,1,2,-3
4,20,0,-3,4,5,3,14
6,11,18,1,-4,-5,1,1
1,-5,-31,5,-11,-12,-21,-10
-11,-8,-18,-23,10,7,10,-16
-10,5,39,26,-2,-6,-6,-5
-12,-12,26,-31,-20,-7,-2,-14
2,-30,-97,-8,9,-5,-5,-9
15,16,11,0,7,5,8,-16
-8,8,54,11,-11,-5,4,-21
2,22,-21,15,1,-1,-19,-60
-7,-16,-13,27,1,-2,-2,-5
4,56,15,-17,1,1,0,-1
12,12,-36,4,0,-1,-2,41
-19,12,-14,-7,4,3,-1,-115
-15,0,34,2,-7,-5,-14,-105
15,-2,-16,-14,-2,0,7,57
5,-15,-1,-2,-5,-3,-13,17
8,15,-40,-22,2,1,2,23
0,7,65,50,9,-5,-4,4
-11,-43,41,32,-5,0,3,25
13,32,-4,-50,-16,2,-1,5
9,7,28,-21,2,6,9,-2
2,-37,-72,-13,-15,-6,1,58
-14,22,6,55,24,4,3,-10
0,60,-8,-15,-4,-4,-6,0
-3,-78,-55,-65,-34,-6,-1,-2
-10,-1,121,47,13,-1,-3,-1
2,-29,-16,43,11,3,9,0
2,48,35,7,-5,3,-2,18
4,10,-3,13,1,1,8,28
-4,-7,-54,-29,3,2,-26,-106
7,-82,40,0,-5,0,0,15
7,4,1,-11,-5,-7,-7,6
5,-1,2,-14,-5,-5,-1,2
-28,-10,27,11,-1,-3,6,72
6,-18,-36,4,6,5,3,1
-17,-14,-31,-4,1,0,-20,-80
6,-3,-36,8,-2,-6,-4,-31
4,-44,-2,-45,-13,-5,0,5
-7,13,107,38,3,-8,-2,14
-10,12,-2,-13,2,-2,-2,-37
-2,-46,-11,22,1,-1,3,44
2,0,31,18,-7,-2,23,-32
-2,12,-59,-4,4,0,-30,-128
7,-4,-74,-38,1,2,1,5
-20,0,23,14,4,2,0,4
0,-69,-46,-13,0,4,11,11
0,4,49,7,1,1,4,11
13,16,38,33,-6,1,13,48
-5,9,-1,5,-4,-9,-10,-32
6,-44,-9,-13,-3,0,4,15
-4,-12,-11,6,9,1,-5,-47
13,-8,-32,-29,-3,-4,27,127
-4,-4,-48,-19,-5,-5,-35,-22
-12,31,115,16,-10,-9,-6,-27
-5,99,36,6,-1,1,7,1
4,-13,-77,21,2,-2,1,11
-12,-2,5,10,4,2,0,3
-1,-10,-40,-5,5,1,12,44
5,-1,-61,-46,-13,4,17,2
13,52,54,35,-10,-6,-15,30
-16,-51,80,-8,-8,-9,-13,-13
-4,-39,-20,-22,-7,-8,0,-6
-7,14,1,3,-1,-4,-7,27
13,39,-10,-7,-4,7,14,21
13,11,-51,-13,-5,-7,-5,29
-28,-27,28,20,15,3,0,2
-14,33,5,13,7,-4,-3,-29
5,20,2,-3,3,-2,-14,-8
6,-5,-28,-42,-7,1,2,11
0,25,13,24,-8,-6,-3,5
-6,-47,12,7,-7,-4,6,-8
-9,-25,-45,-36,-9,-6,-19,-12
3,-71,-24,23,15,8,1,1
-13,6,24,-26,1,5,0,7
-2,9,12,-13,-1,-4,-1,1
2,11,61,54,-1,-1,3,0
9,-11,-45,-9,2,3,4,-50
-10,43,-19,-10,1,-2,-3,-71
-4,5,-28,-10,-4,-2,-14,-14
6,-15,-13,11,2,1,1,4
-26,-42,47,-12,-7,-10,-7,5
-14,-31,-38,-28,-7,-7,-9,-16
-5,-13,63,8,-5,1,12,66
4,8,11,28,10,4,-18,19
0,8,-3,-4,-2,2,6,-11
5,5,7,4,-1,-4,-3,12
0,9,-1,5,-2,-7,-6,-18
14,17,10,0,6,4,4,18
-30,-20,-34,-30,-1,1,-1,-3
-4,-19,3,-24,-7,-2,-9,-9
6,-27,-10,-4,2,-2,-3,13
4,14,9,0,-1,-1,-18,-21
-2,23,63,66,2,-4,2,-9
-10,9,22,-6,-15,-8,2,-52
5,0,34,-35,-14,0,-5,33
-14,0,-88,23,-4,-5,-11,-61
7,4,-23,-9,2,2,3,-1
-1,7,25,-37,-6,4,18,36
-18,-66,-13,17,2,-5,-14,-41
0,8,6,-4,-5,-6,3,5
6,-2,-5,-30,-3,-2,-5,3
4,-59,-13,-5,-7,3,2,3
-11,-8,3,33,-1,-11,-5,50
0,8,-53,-5,1,2,13,33
-5,2,37,-3,-6,-8,-32,-57
0,7,2,-9,-4,1,2,-13
15,27,10,-14,3,5,17,18
2,-33,-14,-14,-9,-2,-6,3
1,-1,13,14,4,-4,-9,-11
10,0,-19,-13,5,4,3,3
-18,-7,-58,-72,-13,0,1,2
7,18,46,33,-3,1,8,49
-6,-9,46,84,13,-6,-5,-11
-1,-18,-1,-46,-18,-2,-1,0
-11,-8,40,19,6,-1,-3,-11
5,-10,-46,-12,3,0,1,9
7,38,-2,16,3,0,4,9
3,23,16,0,2,-3,-5,-1
1,-55,97,-16,-12,-4,-4,3
-9,-35,-128,-11,-2,-1,4,26
-21,-16,-33,-18,-12,-10,-11,-128
-1,7,70,23,-8,-9,-39,-41
-5,-13,5,21,6,2,-2,-17
10,43,10,-16,-7,-1,0,2
5,35,70,-6,-3,-4,4,52
-23,-71,-68,4,3,-4,-11,-67
10,8,-3,-23,-5,-3,12,20
6,23,-34,-18,-3,-1,-2,3
-15,6,42,46,-1,-8,-5,0
-1,22,23,-35,2,1,-1,2
1,-16,-9,3,-1,1,-3,-3
13,-2,-14,13,3,-3,-5,3
4,1,-6,4,9,-2,2,35
-19,5,-37,-91,-10,-2,4,-27
-11,-20,-46,46,-8,-4,-15,0
5,17,67,57,8,-4,-6,-2
2,-7,-17,-12,-7,0,0,5
9,10,-9,0,0,1,8,8
1,0,30,5,0,-1,5,45
-6,5,-30,-22,-8,-3,-4,-39
-5,-25,-24,-7,-8,-8,-11,7
-10,-15,64,38,4,0,-9,23
1,26,49,13,9,10,7,-33
2,-13,-98,-47,-5,1,0,16
2,19,16,-7,-3,-3,0,2
5,78,20,29,-5,-5,-1,-3
-10,-46,-96,-49,-14,-6,-5,15
3,11,3,-13,5,0,5,-8
-7,13,31,73,-1,5,9,-7
-11,-36,32,30,17,-4,-10,-21
6,17,-73,-30,-7,1,1,-7
-17,-55,-101,-70,-13,-5,-10,1
3,-3,-4,0,12,7,1,41
-2,11,39,26,-6,-8,-7,-16
5,-1,7,-24,0,-5,5,4
9,6,-7,32,6,5,-1,28
-6,-13,-21,-31,5,3,-4,-25
-4,18,52,12,-4,-4,-6,22
-8,-32,13,34,-10,-10,-12,-81
1,-21,-49,-34,-11,-4,12,13
1,-36,28,8,-4,-6,-13,-8
5,9,-93,-20,20,13,1,5
1,6,-8,-41,-6,1,1,0
-1,-6,63,56,9,6,4,-9
-11,1,-20,3,-6,-5,-22,19
0,3,5,-5,-2,-1,-3,-5
-4,-2,-18,-27,-16,-2,1,2
-4,0,-13,6,8,-2,-3,1
-1,5,6,19,8,0,0,-5
4,3,8,-18,-8,-1,3,20
-9,-27,-35,-9,-4,-2,0,-118
-4,-32,-35,-5,-2,2,-15,-54
-4,2,-34,-10,-7,-8,-4,31
6,22,22,1,4,0,3,8
7,23,10,7,7,7,20,17
-1,8,60,-15,-9,-9,-13,-9
-14,47,46,20,1,-6,-5,-8
6,22,14,38,-2,-2,0,-19
7,12,21,-2,7,1,9,50
4,-52,-95,-46,-7,-3,-1,17
-4,-9,-17,-1,-1,-5,-5,-10
-38,-11,-6,7,4,0,2,8
0,20,-8,6,4,0,-2,2
-4,-21,21,-10,-6,-3,8,-6
-3,-39,-29,-2,5,-3,-14,2
3,3,11,-13,-3,1,-5,-6
6,5,-45,8,-2,2,1,22
-9,-27,14,24,0,-9,-15,-58
3,4,18,-44,-10,1,-2,24
-17,-1,21,37,2,2,-1,-9
11,11,-32,6,5,1,5,9
-7,-7,-33,-36,-4,1,1,1
2,8,40,36,-2,-6,-4,0
6,4,97,10,4,1,-3,0
-1,1,37,-10,-6,-1,2,5
-1,-8,-73,1,-1,-1,1,8
-7,-9,-15,2,-9,-5,7,48
-18,4,-24,2,0,-5,-17,-87
12,21,-14,-28,-2,-1,8,18
4,12,3,3,14,7,19,-1
-16,-36,-7,-15,-10,-6,-41,-57
0,-9,20,-2,-1,-1,-5,22
4,24,15,4,6,9,9,42
5,-52,2,-24,-12,-4,8,-31
-9,3,10,-9,-4,-7,-8,53
-7,18,-2,20,-1,-2,-4,-123
-5,-86,-50,12,0,-2,-8,-9
8,24,-30,-33,-11,-6,-1,3
-5,-73,1,3,6,-2,-3,3
-3,-1,-47,-13,-1,1,-2,-1
9,20,79,-34,-12,-2,-6,-2
4,17,42,81,0,-6,-1,1
-10,-15,6,-3,-11,-8,-2,70
-1,-1,-43,-13,11,2,3,-2
-5,3,42,7,2,0,-5,-4
-1,-3,-32,0,-8,1,5,11
-2,0,-19,-11,8,-1,-8,-5
14,9,-11,-36,-5,3,8,11
0,-1,6,17,-4,-2,-2,15
4,-10,-16,-19,-9,1,-3,5
-12,5,32,18,6,-2,-10,-12
2,28,-25,-14,0,-2,0,7
-6,12,44,-10,-5,-2,3,-4
-7,-59,7,9,-3,-7,-8,19
-4,-6,-35,10,7,-4,-4,-1
-2,8,-25,-9,-1,1,3,-2
7,32,31,8,-3,0,-3,0
-1,-7,-5,8,1,-2,9,6
-2,-55,-48,3,0,-3,-7,-2
-2,-15,-51,-25,-5,-2,-9,-13
-37,-1,-20,-6,-2,-1,0,-1
8,19,59,-9,1,1,0,101
3,9,-12,-13,-6,2,12,-56
-13,-3,-35,8,3,-7,-11,11
6,15,46,25,6,-3,9,25
1,4,16,-8,-10,-3,0,-8
4,37,-1,-34,-14,-2,-4,-3
-17,-28,-76,-8,-10,-4,2,6
-4,-10,7,13,3,1,-6,-8
0,2,-18,-20,-6,-7,3,-1
1,6,-14,5,2,-4,-3,-2
5,-1,7,31,2,0,0,-3
2,34,-75,-54,-4,4,-2,-5
-11,1,17,-30,-8,2,0,6
-5,-14,32,61,-5,-6,-7,-5
2,19,46,8,6,-5,-3,-12
8,0,-93,-31,-15,-6,-5,18
2,15,16,-6,6,2,0,36
-10,-16,94,53,-1,-11,-9,-12
7,15,-17,-21,-2,0,3,7
-14,-35,-68,-1,-1,-5,-2,-7
2,7,8,29,11,3,-1,-2
4,4,-10,-34,-7,2,1,1
5,1,28,3,-7,-2,-6,9
-17,1,-10,-4,-7,-6,-18,-106
4,9,16,9,6,-1,-2,-45
7,11,-25,-6,-6,2,0,1
-4,-1,6,-10,-3,-4,-10,-24
-4,-27,17,2,4,-1,2,21
3,12,-40,-34,-9,-1,2,1
-1,-2,-5,12,4,-5,-2,-2
10,7,16,21,8,3,12,-3
6,21,8,18,-5,-1,-10,13
7,-54,-11,-35,-1,-2,15,1
3,13,-32,-28,-5,0,-27,2
-12,-38,-3,0,2,-4,-8,-20
-2,34,93,43,5,-1,-3,-3
-6,-57,18,44,-5,-2,-4,-10
0,-94,-49,-9,0,-3,0,76
-13,11,3,-2,-5,-3,-28,-123
11,-14,-41,-44,-2,2,2,5
-18,41,62,12,-6,-2,-4,5
3,-14,-45,-1,5,-4,1,35
-6,4,6,2,-17,-7,-5,-41
3,21,-7,13,8,0,-1,1
5,-70,5,-13,3,2,7,12
3,19,-17,1,-5,-8,-15,-56
-6,-9,-14,-3,-4,-6,-6,-5
-3,-8,12,34,3,-4,-6,-4
1,-8,-23,-15,-9,2,7,-9
0,-31,-25,-51,-13,-6,-8,12
12,-5,-22,0,0,4,5,-23
-10,-7,44,-6,-12,-9,-2,-2
-1,15,-38,0,6,1,0,-7
-4,-4,2,14,6,4,2,6
-5,-20,12,-3,-2,-7,-2,-2
4,3,-48,-12,-2,-3,-6,-1
0,6,48,36,0,-6,-2,21
5,18,53,17,1,0,4,13
-7,-10,-15,-4,2,3,3,-13
-14,-18,-81,-43,-8,-5,-12,-96
1,75,-8,-11,-1,1,12,3
7,-26,-17,-5,2,2,-3,5
-29,25,-5,-11,-8,-2,2,-2
-3,-13,28,21,1,-5,-2,7
-2,3,31,13,9,2,-6,-1
1,10,47,-10,-15,-2,-3,-1
3,-38,-103,-34,-1,-4,1,19
2,-2,21,40,6,1,-2,-15
-7,30,-17,6,-10,-6,-13,-15
15,-33,-47,-6,2,0,19,52
-6,-13,76,25,-16,-8,-10,-9
3,9,-6,-48,11,9,7,29
-10,-5,-11,20,4,0,-5,-65
8,11,25,15,7,-2,3,64
-14,-7,-25,-12,-5,-1,-11,-128
-1,0,-47,-26,-4,-2,5,-2
13,24,6,-8,-1,-1,8,21
5,31,97,44,-1,-3,-6,32
1,-8,30,-3,-5,-4,2,5
-10,-14,-43,-22,-3,-9,-11,-1
1,13,-30,9,2,3,-1,3
-8,5,15,15,-3,-3,5,5
1,0,0,2,1,-4,-4,-6
-1,-12,-80,-63,-9,4,-1,20
-4,3,47,15,-4,2,0,-1
-5,4,91,53,-1,-8,-2,-7
-5,4,2,13,-1,-6,-3,-8
4,-15,-32,-42,-4,2,6,1
-1,1,39,8,2,-1,0,9
13,1,-26,38,3,-2,2,6
2,6,-61,-51,-15,4,-8,-2
-39,-17,-4,5,9,-1,-1,-11
6,12,10,-20,-1,-5,0,10
13,12,-7,-15,-3,-1,7,63
0,21,5,27,0,2,-15,-111
-9,-34,-92,-57,-5,-2,-7,-13
7,48,65,-11,-4,-4,6,10
-9,-5,45,46,3,-7,1,-18
8,-61,-4,22,3,1,1,23
1,33,12,28,-7,-7,1,12
1,-32,-62,-27,-5,0,-5,0
0,-5,-53,-69,13,6,3,1
-3,18,44,57,-4,-5,-6,-5
-4,7,27,-4,-12,-7,-3,-4
3,12,-15,-24,-9,0,-1,-1
-5,46,-18,-13,-1,2,-2,-32
-2,48,-9,21,5,-6,-3,-4
4,7,-16,-9,2,-6,3,7
-1,-4,25,4,3,3,0,7
1,4,19,-36,-14,3,4,-1
0,-2,58,23,1,2,-3,-3
-7,-13,-63,-10,-2,-8,-4,-4
3,9,-34,-6,0,-3,-4,-7
2,20,-20,-30,-8,2,-1,3
-27,-70,14,-4,-3,-3,-3,-12
1,16,-19,-35,-12,-5,-3,-6
12,-20,-45,2,4,3,7,18
7,-5,-39,-39,0,4,1,15
-7,-10,70,41,5,-2,-7,-28
-7,18,55,29,0,-7,-11,-10
2,7,-3,-5,-13,-5,0,21
4,22,-31,-28,-4,1,3,-56
-6,-21,-31,-2,-3,-1,3,23
-17,-17,-44,-12,-4,-6,-14,-128
7,16,21,9,4,0,5,21
1,-17,-45,-21,2,-2,5,7
3,-3,-20,-9,-3,-1,-4,23
7,-6,45,40,3,1,4,13
1,18,-20,-27,0,7,1,1
-3,9,-42,-24,-8,1,-1,-24
1,-9,-51,-12,-5,1,3,23
0,10,21,9,4,1,2,-10
-3,18,9,5,3,-6,-10,-13
-2,7,-17,-17,-13,-2,-5,-7
-5,35,103,34,-4,-4,-6,-4
-11,-25,-32,7,-2,-8,-4,-9
9,87,-63,-11,2,6,7,1
0,14,-31,-75,-5,0,-1,-4
-14,-10,96,104,8,-10,-9,-14
11,17,24,-45,-9,-1,4,18
-13,14,-28,-27,-8,-3,4,-39
6,-35,-37,-43,-8,-7,-16,51
14,7,18,28,10,2,-13,-66
-46,12,-26,12,2,-1,-1,-17
8,29,-49,-22,1,2,0,0
-11,-51,16,7,-3,-8,-7,16
-1,6,51,29,-1,-5,1,3
-3,-5,-68,-31,-4,-4,-2,8
-3,15,-25,-1,-4,-5,-7,-8
5,12,-12,-16,-5,2,2,1
-4,-60,28,16,-7,-2,-3,3
9,31,79,28,7,1,-2,1
-13,9,-9,-13,7,4,5,-3
2,9,-6,-32,-6,5,-4,-22
-7,-38,-15,15,-6,-9,-5,0
-5,-14,-11,-10,1,-2,-5,-26
5,-28,-26,-8,4,4,-3,20
4,-7,-21,-19,-3,1,3,-5
-3,10,42,28,-3,-7,-3,-99
11,9,60,41,-1,-1,-4,19
-6,-5,-42,-36,-6,0,0,-30
-2,-19,-25,-23,-5,1,-4,-2
-4,18,17,-4,4,2,1,18
-6,8,1,36,3,2,-7,-4
3,-14,-67,-73,-6,-5,5,8
3,53,39,-20,-16,-3,-13,13
-2,4,67,63,4,0,2,-6
-8,-9,32,19,7,-2,-1,18
-15,-80,-4,12,-1,0,-2,-53
-5,-10,36,34,-4,-6,0,-9
12,13,5,-26,-2,-2,2,11
-2,3,-24,-4,-1,-3,1,2
-1,33,-1,-23,0,-1,-1,-5
-3,40,16,-2,5,5,-2,3
-9,-53,35,9,-11,-12,-7,22
8,22,5,-6,-5,2,2,7
8,-9,-87,-32,-4,0,3,22
0,-23,27,15,4,2,-6,-118
-1,-21,82,16,-9,0,1,11
-2,15,34,-22,2,0,5,-4
4,-3,119,53,11,-6,-6,-1
-14,-28,-79,37,-6,-6,-3,-5
-1,2,-5,10,-9,-4,-4,0
-5,-4,-11,-7,8,4,1,3
0,-9,-22,-32,-1,0,2,0
15,2,-10,-26,1,3,13,43
-3,3,30,16,0,-3,-7,-12
-2,3,7,-9,-3,-2,0,-21
3,2,-25,-22,-2,-3,-13,-38
2,16,36,-7,-5,-1,-2,1
-4,0,2,38,1,-1,-3,5
2,22,3,4,4,-4,-1,2
8,20,1,29,4,1,5,12
3,-2,-68,-46,-1,3,3,-4
-6,0,5,5,-10,-7,-7,82
-11,-18,-31,-51,-8,-2,-3,-87
-1,-2,-27,36,11,-1,-3,-2
7,-29,84,70,8,5,4,8
-11,-25,-40,-12,-9,-5,-10,-22
5,37,57,-19,-3,-1,2,25
-4,-13,-22,-26,-4,-7,-9,-5
-17,-11,28,33,0,2,1,18
-8,26,-43,2,-1,1,-6,-52
2,-2,-33,-28,-8,1,-3,-2
0,-11,-5,2,3,-2,5,0
-3,3,-19,15,2,2,-3,1
1,6,12,-19,-1,1,2,0
3,14,66,31,5,0,1,-5
-2,2,-5,21,1,-4,2,0
-7,-9,-61,-18,-5,2,5,3
-17,-7,8,-8,-2,-6,-19,-35
9,9,24,14,6,3,3,7
8,2,-4,5,-2,-9,-4,11
3,32,-32,-47,1,1,0,-2
-15,12,-21,-18,-18,-10,-5,37
-15,-56,41,39,-5,-6,-4,-83
-9,1,-13,34,-9,-12,-21,31
5,2,-37,3,0,0,-1,32
-3,5,-34,-12,3,6,3,-16
13,20,-30,-3,8,2,4,18
-2,11,4,-16,-11,-1,-2,2
-6,-5,60,-36,-17,-5,-4,-12
7,3,-24,7,-1,1,4,18
2,7,11,-20,-6,-4,-3,-2
10,44,17,6,-1,-4,2,8
-11,-20,-15,22,-1,-5,-11,-31
-14,-45,-11,-3,-2,-2,-10,-12
10,6,-4,-8,-3,-3,0,4
0,5,-73,-32,-4,3,3,4
-6,40,52,-1,-2,-1,-3,-2
-5,-7,31,-8,5,1,0,-6
-5,-12,20,34,1,-5,-6,-18
11,28,36,47,-1,-2,3,11
-1,-3,-11,0,-3,-4,8,-15
-6,-3,-16,-22,0,-5,-8,-1
12,4,22,5,-7,-3,-2,28
-5,1,-14,-15,-9,-5,1,-38
-8,-1,-79,-26,-5,-2,-12,-116
-1,1,-6,5,-3,-7,-5,-7
11,39,25,-6,6,7,18,45
-29,29,7,-10,3,-1,-22,-128
-3,-73,-32,-7,-7,-5,2,2
-11,-21,-15,13,5,-2,2,4
3,10,51,20,8,4,6,10
-4,1,3,-5,-10,-2,-1,-1
4,16,46,-21,-7,4,3,9
-8,-16,-89,-31,-7,-7,-6,-16
2,62,127,26,-5,-10,1,-8
1,15,36,39,4,-5,0,13
1,6,0,26,5,7,1,4
-11,-32,-51,-41,-7,6,-4,-8
10,28,-8,12,22,9,7,-1
-15,-62,2,18,-7,-12,-13,-7
-8,10,23,-16,-9,-5,-1,-2
6,-2,-73,-31,-2,0,2,-2
1,5,49,-19,-8,-6,-3,2
-8,-10,27,9,-3,-4,0,-7
3,3,-37,9,-4,-6,-1,-4
-3,-3,0,0,-2,-5,-1,-2
13,26,12,11,-1,3,2,37
-4,42,4,-14,-1,-2,17,-10
-19,-70,-43,-14,-2,-1,-10,-15
-18,-2,36,10,-5,-3,-14,-10
3,-17,6,-37,-12,-3,1,14
3,17,-2,3,-1,0,-4,-5
9,-2,-9,-17,-1,0,1,24
3,17,45,14,5,2,2,5
-3,13,19,18,-5,-6,0,-27
-2,-20,-38,0,6,0,-1,9
-10,-10,16,6,-11,-5,-3,-1
2,1,-4,0,-4,-1,3,3
2,4,-14,26,12,6,-6,-15
-1,-17,7,-22,-5,0,4,99
-8,-39,-4,-10,5,-3,-6,-44
5,18,-45,1,-9,-1,2,4
3,10,19,-41,-3,-2,7,4
-10,-9,8,32,2,-6,-6,-8
7,-7,12,7,-11,-5,-1,6
-7,-11,14,-6,5,1,4,5
-16,-26,-10,-20,-14,-9,-6,-13
10,4,-46,-20,6,0,5,14
-2,34,103,48,12,2,-2,-5
4,-8,-128,-23,-6,2,3,5
1,-25,-53,-66,-13,0,6,4
-8,19,67,22,-4,-1,-6,-9
-5,1,16,24,5,-3,0,-8
-11,6,-15,-9,-8,-9,-9,2
7,-29,8,-19,-3,3,3,5
0,-2,-8,19,3,1,-2,-2
-3,-6,-1,7,-2,-1,7,10
0,19,1,8,-4,-7,-12,-21
-1,-29,-43,-18,5,0,-4,-4
-9,10,4,-9,-2,1,0,16
-6,13,13,-35,-9,-3,0,-17
-6,-16,-3,2,2,-5,-5,-20
-2,-10,-50,-25,-12,-6,4,-1
7,7,-19,-29,-4,-3,-8,-7
-7,-21,7,-5,-5,-1,-5,2
-3,4,81,82,11,-1,9,12
-6,-4,53,32,-7,-9,-11,-2
-3,-89,-127,-24,-9,-3,0,4
6,-27,-1,-14,-6,0,5,8
7,10,2,5,3,-1,1,5
-4,-8,-19,17,1,-2,-1,-7
4,11,-30,-69,2,13,10,-1
-7,5,36,-8,-9,-4,-8,-3
-6,3,2,15,7,-3,0,-3
-1,-7,24,-2,2,2,2,-8
10,4,9,7,-2,-3,2,7
-2,12,-14,-13,-2,-3,-6,-3
-3,-51,-7,11,-3,-4,-1,-6
1,-4,16,-9,9,2,2,20
-7,23,-29,16,-12,-2,6,56
-14,-63,-25,-48,-19,-6,-16,-105
5,-6,-11,16,2,0,2,3
-8,-31,21,-12,-3,-5,-5,-4
7,4,-6,-13,1,4,2,14
3,12,60,46,12,1,0,0
-4,4,52,19,4,1,16,16
-13,1,-65,-46,-14,-6,-17,-68
3,-15,-58,5,-7,-1,4,0
2,11,-5,-1,1,2,-5,-2
-3,-33,44,12,-5,-7,3,22
-7,12,42,7,-2,3,-9,-118
0,15,11,-8,-5,-7,-4,-9
2,-11,-31,-11,-5,0,2,6
2,78,0,-25,-9,-2,0,8
-4,2,-8,53,14,-3,-1,-8
8,-19,-19,-5,-1,7,5,1
10,3,-10,-61,-19,2,-8,-4
-2,-15,-20,-36,-11,-7,-9,-2
24,11,2,1,14,9,23,59
-12,14,55,37,8,-5,-8,-58
-3,16,21,30,-4,-10,-8,-7
1,8,-25,-1,0,-2,-3,14
-3,21,1,-12,-2,4,0,-27
-13,-82,-17,-7,-10,0,-1,11
6,8,-17,0,0,-4,-7,2
-4,-37,23,11,9,-1,-2,-2
-5,7,-5,11,-4,-1,3,-8
12,11,-14,-39,-4,-1,1,9
-1,13,4,17,1,-3,-1,-1
-2,-8,20,24,2,-1,0,2
-3,-4,-40,-19,-12,-7,-6,-8
-6,4,15,-15,-6,-3,0,33
-2,10,23,8,-5,-3,3,-89
0,11,43,2,-6,-1,8,0
1,-5,-79,8,19,3,-7,16
1,6,3,6,0,-2,5,12
12,2,-9,-21,-9,0,2,6
-6,-33,13,-8,0,1,5,1
2,8,-18,-4,0,-2,-7,-4
-4,-1,49,-11,-9,-4,0,7
-14,-11,23,1,-21,-13,-15,-11
17,38,-41,18,6,1,3,26
-6,6,-10,-13,0,-4,-3,21
-13,11,-9,19,4,4,1,-25
5,-22,11,-8,-4,3,0,2
2,15,-10,-4,-2,-3,-4,-1
-15,-51,-8,0,-2,-4,-12,-8
16,27,21,-13,3,5,16,68
-12,-55,-111,-10,0,-8,-8,6
4,-21,9,-11,-8,-2,-5,4
-1,26,77,46,4,4,-2,2
-3,2,-3,-32,2,5,0,-6
-3,-7,-128,-72,-13,-3,11,17
-5,-4,127,61,10,-1,-27,1
-8,-1,48,48,4,-3,-5,-37
2,-6,-55,2,-7,-5,-5,-7
-1,5,-6,15,3,-1,2,2
2,1,-14,-29,3,3,2,3
1,-17,-18,-4,-5,3,4,2
1,23,10,-14,-7,-1,-7,-2
-1,-18,-42,-6,-5,-7,-5,12
2,10,-20,-14,3,2,3,4
-8,-19,-14,-28,-8,-5,-2,-10
5,0,46,12,-8,-5,-5,13
3,1,45,24,-1,-4,-10,18
-1,9,61,47,-1,-4,0,1
-7,-12,-32,-21,-1,2,2,-12
-1,-1,52,39,-2,-14,-10,37
5,65,52,-5,-2,4,-2,-99
-3,-9,-53,-24,-1,1,1,5
-1,-19,0,-9,3,4,-1,11
4,-34,-28,-9,-7,-6,-4,-5
-9,-44,1,-12,-6,-4,3,15
3,24,5,-25,-13,-2,17,19
1,-48,14,2,3,-1,-8,-11
-6,-12,33,27,8,-3,-10,-9
-8,15,-4,-18,-1,2,-1,2
-2,-22,-113,8,-4,-4,-2,0
-3,0,49,-21,5,4,-2,-5
-4,3,-12,-21,-3,2,2,-5
12,17,20,15,-13,-10,2,7
4,-19,-34,-63,-2,-1,-1,-2
-1,-128,-84,-57,-7,-2,-2,2
-9,36,87,64,4,-5,3,-7
-1,38,-19,53,5,-3,-3,22
2,1,-14,-31,-5,-6,-11,17
0,-7,11,4,5,3,1,-1
1,30,14,18,6,-3,-1,1
5,22,30,-19,-7,-2,5,6
-1,16,-26,-10,0,-1,-1,0
