Channel_1,Channel_2,Channel_3,Channel_4,Channel_5,Channel_6,Channel_7,Channel_8
-8,-11,-14,-29,2,-1,0,-4
40,127,-39,-2,64,37,26,14
-75,-128,-120,-100,-46,-40,-34,-42
5,-128,-46,-24,-14,-6,5,63
0,19,-75,-26,-5,1,-10,-101
-7,0,45,28,-1,-1,-2,14
51,27,14,-13,2,5,28,86
27,45,3,11,4,7,-6,-88
-87,-35,-3,36,-1,-2,-8,-101
17,-31,79,-128,-24,-12,-14,-15
-7,-128,-128,39,3,-3,12,49
54,-33,-33,3,0,9,48,127
-3,21,127,-6,-13,-11,-4,-5
14,29,-128,-65,4,0,-2,-7
-56,-75,124,-59,-34,-23,-5,-30
-5,47,31,98,23,-1,0,29
8,49,47,25,1,9,7,-4
27,122,-128,61,30,22,-15,-3
-9,127,37,-49,-4,3,4,-11
19,19,22,-61,1,13,28,18
-24,-128,-128,28,-20,-29,-11,-20
20,-92,11,-2,16,22,-4,10
23,49,-101,74,11,10,23,18
48,83,127,97,22,16,19,21
-64,-9,-50,-25,-28,-27,-39,-42
-17,12,127,-66,3,14,-31,-10
30,-128,127,127,32,-3,2,28
-63,127,-128,5,-22,-12,-20,-37
-30,-24,-44,-128,-33,-7,-22,-17
15,47,35,127,-41,-17,-11,0
22,22,-12,127,36,19,3,-1
-13,64,96,-89,-15,-8,11,19
-1,-24,99,74,27,21,9,28
-2,12,-93,-111,0,0,-16,-13
-76,-91,45,40,-18,-17,-9,-31
61,50,77,57,-4,1,-1,13
38,127,127,-128,-42,-28,-11,7
-128,-128,-94,-41,-31,-21,-20,-50
7,-128,7,127,30,19,6,-9
25,127,116,-87,8,-4,6,29
28,-102,0,-29,0,19,20,21
61,127,127,11,-3,11,10,31
-4,-33,-128,-39,-11,-9,20,0
-23,-128,35,-36,-14,-10,11,-10
-51,-128,-72,-59,-10,3,4,-6
12,125,-3,-25,2,10,26,39
19,-32,-14,54,5,9,18,26
-20,42,-128,-79,-18,-11,-6,-31
-16,27,-1,-64,-31,-31,-41,-40
-6,7,6,68,-9,-13,-1,-17
-53,127,-21,-67,-27,-15,-13,-11
-8,127,-28,0,10,14,33,16
-34,35,88,59,-4,-1,9,-12
35,127,33,104,39,28,7,21
-20,-17,33,-59,-11,-5,-4,8
-30,-120,-102,-110,-17,-4,-17,-10
52,12,-10,-39,15,13,12,11
8,67,-5,76,15,2,-5,-16
59,46,90,39,-8,-3,16,19
62,96,12,21,-11,-8,10,35
-48,-28,-62,46,5,7,41,-17
-76,29,7,-89,0,-6,-41,-54
46,81,-34,-8,16,14,-27,21
-3,127,-28,42,11,7,46,-12
7,38,-20,-44,-14,-13,-20,-22
93,127,127,65,35,26,-3,40
-23,-92,-13,-82,-28,-31,41,14
24,-88,-23,-28,-17,25,-36,73
-6,127,113,39,20,-9,31,-92
-14,30,44,37,35,4,23,-23
69,-77,14,8,25,26,-14,27
-16,-128,2,-13,-15,-16,-64,-14
-76,6,33,32,-8,-9,-25,31
113,-65,-68,20,2,-1,-21,-41
-86,-55,-38,-128,-32,1,65,33
-32,-67,46,61,11,-7,-42,-128
42,57,25,64,10,3,2,46
20,-6,99,-20,-26,-6,-22,10
7,-128,-128,-27,-17,-19,34,71
-9,-37,3,17,26,9,-51,-47
-42,127,-14,16,14,8,39,19
14,102,45,-35,12,7,1,45
-28,-21,70,-4,-19,-29,-26,-90
-18,32,20,85,2,-1,-39,-26
16,10,52,-37,0,17,24,32
-8,-53,-65,-26,0,-10,12,36
60,35,-24,71,10,6,-66,82
5,-54,-36,-61,5,20,59,55
-86,-128,-56,-49,-25,-27,123,-71
76,16,22,2,0,-11,-19,42
0,112,80,35,6,6,-56,6
-17,9,127,127,0,-3,-31,-54
65,-59,-52,-17,22,21,35,127
-92,-33,34,-33,-14,-14,-37,-81
54,84,24,34,33,33,81,127
-32,-5,-105,127,21,7,-31,-128
65,-65,-4,-116,-25,-15,-60,-100
-106,-101,22,28,-29,-38,-21,127
-87,-128,64,-29,-13,-13,-28,-128
-21,-128,16,4,2,-2,-28,54
30,22,22,45,16,20,37,105
63,65,127,54,16,18,53,-15
5,58,52,54,11,-12,14,127
-1,-38,-128,-2,1,-3,-11,-31
-17,-23,-117,-116,-13,-7,0,127
30,-4,127,110,9,7,12,78
40,65,46,34,2,7,115,127
85,-128,-96,-50,-3,9,44,43
-128,-17,50,94,5,-25,-128,-128
-44,20,108,-128,-20,-12,40,127
-30,-39,-128,-48,-18,-1,-57,-128
-10,-4,-52,10,15,4,-23,0
31,26,36,-16,5,10,47,118
27,42,-2,-28,0,0,52,127
-15,-89,-49,3,-20,-13,18,127
0,-5,120,0,7,0,-21,-128
29,127,-73,-80,-12,2,59,127
9,-7,-18,-60,-16,-9,-46,-128
-53,-51,-68,-11,0,-12,-46,8
-47,-41,49,82,5,8,10,37
36,13,23,-37,9,5,36,20
7,-51,5,-23,-3,-2,9,127
2,122,-58,-10,-21,-8,24,-21
25,19,104,-27,-31,-9,-12,53
-33,10,20,30,-22,-29,-76,-128
-17,-27,-39,-80,32,20,-3,33
14,-55,-83,26,-1,6,19,-37
36,-91,47,30,11,6,43,127
-33,-11,-24,-3,-13,-10,-21,-128
6,13,23,21,6,-2,-2,54
4,17,-12,-24,11,-1,-25,-128
-15,6,-22,-16,-28,-17,-58,-77
2,-42,-3,1,-5,1,2,-20
20,11,-128,-81,-19,-1,18,30
-11,26,-86,-33,1,-4,4,1
4,126,99,73,7,-4,-2,-17
1,-97,-11,-3,-9,-2,9,-102
16,-12,58,11,-2,1,4,-10
-8,42,-30,-10,-8,-4,5,40
-23,-15,-128,-55,-12,-4,11,85
1,-16,-89,-4,-1,-5,-33,-60
7,18,65,16,3,13,22,42
21,8,20,-19,3,3,41,76
-38,-39,-39,-6,-16,-20,-78,-110
18,3,-9,-26,2,3,1,-20
20,27,-18,34,8,5,35,117
27,50,25,29,-1,-4,-12,-26
5,8,41,27,12,15,14,-128
-11,3,-121,6,11,2,3,94
-30,-41,-60,-77,-18,-7,-24,-128
15,-2,30,44,4,-4,-11,81
3,1,-54,-13,3,9,47,86
-13,-79,-70,-16,-16,-14,-44,-69
16,127,34,33,9,7,2,16
-26,-111,-128,-117,-28,-24,-20,24
-46,-14,-9,12,-21,-26,-41,-86
15,127,44,50,14,8,20,-6
-25,-36,-90,9,1,5,18,-13
23,21,16,22,18,11,3,-103
-6,-9,7,-42,-7,-5,-12,-5
23,10,-29,-1,-15,-9,-4,10
-29,7,64,44,23,14,19,35
38,-26,-7,-6,-2,3,17,62
-21,-42,59,22,2,2,22,-5
2,26,-43,-15,-2,-6,-51,-109
14,63,-26,-41,-3,5,4,-6
-2,-36,55,9,2,-5,-7,-19
66,-7,32,-41,2,14,40,127
-34,-37,73,26,2,4,16,-4
34,57,53,127,22,4,17,63
-24,-51,-25,-91,-21,-15,-29,-103
34,127,93,6,-6,-5,17,127
-24,-2,37,48,7,3,17,-128
10,-54,6,82,10,-1,-58,-27
25,-10,-111,7,17,7,11,19
-1,44,36,-128,-26,-6,-2,10
-15,-63,22,66,-9,-9,0,-9
-6,5,-59,90,11,-1,2,-4
-3,12,-25,-128,-39,-8,-1,-2
0,20,-51,56,25,5,4,-4
18,18,127,-6,6,12,14,9
-3,-12,-100,34,-4,-6,10,49
-4,-128,24,-37,-4,1,-13,-121
6,75,4,-56,-2,1,2,-1
-12,-86,-62,-20,-25,-21,-17,6
12,80,47,51,12,4,20,127
82,19,-112,-2,10,6,14,127
-92,-36,-43,-12,0,-5,26,-128
-15,1,76,46,10,9,-53,-54
-47,-35,37,42,5,-5,-34,28
-6,95,-28,-76,-20,-15,-18,-5
20,-56,-53,-41,-11,0,8,40
3,-1,38,5,-15,-7,4,96
1,-25,-8,58,0,-7,32,115
-33,-21,5,-108,-9,-12,-39,-128
11,127,73,38,20,15,15,36
24,55,29,-128,-13,5,18,15
-25,12,-76,64,-23,-18,-22,1
11,9,87,50,-22,-9,3,10
-8,-15,7,68,13,4,19,-22
18,116,16,64,53,21,-6,-8
-2,7,6,-71,-17,-6,-3,-20
18,28,42,40,-5,-2,11,23
3,70,26,-48,12,3,-7,-4
13,3,-35,65,-2,-1,8,-33
-6,-20,-46,-19,11,1,-4,8
12,-4,113,75,11,0,27,65
-20,15,-11,-128,1,-1,-17,-82
-3,35,45,12,-28,-17,-45,-72
-1,-56,21,57,-1,-3,6,127
-14,72,-37,56,10,2,-18,-24
7,-61,-59,70,16,11,9,39
36,113,68,-8,14,5,29,21
-54,-128,-29,-128,-38,-23,-10,-19
12,114,-49,-77,-19,-8,0,-26
-19,-40,87,41,-18,-12,-7,61
-11,87,-128,27,16,4,-3,-101
-50,-128,-97,6,-13,-19,-46,17
18,48,70,127,-1,-12,-3,15
1,59,-16,27,-6,-1,-20,-26
-12,-15,-31,-128,28,25,1,-10
21,54,127,84,33,15,10,22
-9,-33,-83,13,-20,-11,10,46
-6,13,10,-1,-2,-4,-17,-33
-28,-11,2,-31,-25,-24,-24,-28
-2,1,15,-57,5,9,17,-17
17,-26,7,72,-4,2,-14,9
14,3,22,54,10,3,21,21
20,39,-5,-47,-5,1,3,-5
-3,-2,-17,-14,-12,-7,17,-21
-28,38,71,26,0,-8,-43,-8
-10,-17,-72,127,20,2,25,-18
28,32,69,-128,-4,8,-8,30
-19,-65,-39,-40,-33,-18,-8,22
22,90,45,114,10,-1,18,4
-14,-95,-17,127,-6,-18,-9,1
-5,25,-79,-128,-9,16,36,-3
22,69,94,3,-8,3,-14,-7
21,48,10,46,53,13,27,38
-24,-70,-82,32,-14,-11,-12,7
3,68,21,-17,25,8,-12,-7
-15,2,46,-128,-33,-24,-25,-26
-2,-100,-100,41,-36,-20,-7,0
-3,-12,-2,33,-10,-9,-10,4
25,101,116,13,21,17,22,11
-1,-114,-102,-27,-3,12,6,-1
21,-7,-19,-21,-5,4,15,46
-31,28,3,31,0,-3,-10,-128
19,-62,19,24,4,3,15,22
-6,29,34,-22,-7,4,23,-79
0,67,1,-39,-25,-21,-40,-16
5,27,28,102,-12,-12,-4,4
4,-7,66,31,7,8,7,20
8,-15,-15,-111,-7,5,9,7
31,87,36,95,30,17,9,22
16,-28,-25,-98,1,-5,28,115
-44,-18,7,20,-27,-27,-81,-128
-7,88,31,-8,-10,-2,6,-34
5,-64,18,37,8,3,9,7
5,30,-33,-20,7,4,-6,-2
-4,-88,3,38,-5,-9,-4,16
-6,-4,18,45,-6,-9,-20,-9
-9,33,1,-71,-18,-4,11,-23
14,22,40,-12,3,11,3,19
9,6,-48,44,-2,-3,14,10
19,81,-11,-128,14,13,22,6
-21,-47,-17,127,19,8,-18,-30
-5,-8,57,-128,-7,-5,-1,-5
38,63,-57,1,-28,-8,25,127
-21,-53,21,67,12,9,-14,-128
-14,8,0,127,-6,-27,-28,3
23,81,67,-65,21,25,17,29
-5,-11,-128,-114,-15,15,-1,3
-14,-84,-48,14,23,-5,-12,1
2,25,37,-4,7,3,1,-53
20,0,-7,-63,-14,-6,35,127
8,9,50,30,7,4,-29,-128
-11,35,11,-4,-20,-19,-19,-23
-36,-50,17,-17,-18,-17,-14,2
15,-20,-33,-10,3,5,7,-1
9,3,34,-1,3,0,5,11
0,5,-2,7,-2,6,2,-2
17,7,11,10,0,-1,11,15
13,15,12,30,6,14,18,10
6,27,12,-16,-3,-4,0,0
-13,-2,15,8,4,-6,-17,-11
3,-5,67,-7,4,2,-3,-14
-11,-43,-94,-23,-24,-4,-1,-6
0,14,40,-7,-20,-6,-6,-6
15,83,18,-36,41,14,3,6
-12,-97,-42,-7,-2,6,3,-1
-20,-45,-65,-10,-34,-16,-3,-18
39,65,-26,72,4,3,10,27
-55,0,77,-16,-2,-16,-25,-32
-7,44,-35,-36,-14,1,-14,20
29,-13,0,-20,1,2,18,29
-28,15,11,15,-19,-8,-12,-88
19,24,44,35,5,3,9,38
-9,-22,-62,-5,-5,-9,-8,19
7,-6,2,22,-9,-4,3,-28
-3,0,17,34,-3,3,5,14
-1,10,-18,-82,-10,0,1,-2
-1,-6,0,27,17,2,-13,-10
5,2,9,27,3,0,7,1
-5,2,10,87,4,-1,1,-2
10,-45,7,2,4,3,5,14
-2,58,-15,-58,-5,0,-4,-14
-26,-128,1,-49,-20,-14,-14,-19
-8,117,32,9,-10,-4,-4,-8
-11,-83,-21,19,-28,-11,-7,-15
-2,17,49,36,24,-2,-6,-4
19,35,-23,65,32,17,7,15
7,-40,-7,-86,-12,2,12,31
-30,-43,-37,-79,-3,-4,-11,-87
12,10,33,35,2,5,8,41
30,14,22,2,-2,2,7,127
-36,4,7,-9,-17,-14,-23,-128
11,12,8,13,-1,0,-3,23
3,-18,18,37,4,2,-6,19
-9,24,-10,79,-17,-9,-9,-10
5,-17,50,-73,-12,-7,-2,-3
4,18,-35,-2,51,7,9,12
0,-36,-22,-27,-18,-1,7,-2
2,13,12,-24,-6,5,13,23
9,7,2,51,-16,-8,-4,39
1,16,7,57,15,-7,-21,18
4,-27,-1,-84,17,16,6,-4
3,74,-22,-18,-15,-3,1,8
-25,26,127,71,3,-7,-13,-48
-14,-107,38,-2,-7,-13,8,29
-8,-11,-128,-36,-17,-10,-24,-86
4,7,23,27,13,3,3,19
10,-11,18,25,-4,3,11,24
4,15,-13,-5,-15,2,5,17
-30,19,-41,-23,20,-11,-28,-128
-6,1,3,-18,5,1,-3,-14
5,18,74,26,-3,-3,1,71
19,23,4,-3,-6,-12,-27,-18
-29,-61,-128,-52,-15,-10,-5,-6
-1,-20,-47,-5,-21,-15,-9,-1
-10,81,80,81,4,-1,-3,-23
2,37,70,-47,7,15,12,-2
-9,-65,-108,-84,-44,-8,8,37
-5,2,-46,60,61,20,-6,3
8,14,-6,-20,-8,-2,4,-37
20,5,-11,3,1,9,55,127
-54,37,17,17,1,-3,-24,-11
16,-42,-6,-1,-9,-12,-30,79
-6,54,13,22,-8,-9,-21,8
11,100,78,60,1,4,7,16
-19,-7,-39,-128,-22,-9,-1,-2
-2,46,-41,-49,-16,-3,14,55
5,-7,-2,7,4,11,11,39
39,20,30,29,10,8,29,127
97,40,35,20,3,0,5,-128
-105,-4,16,-19,1,0,-11,95
-6,11,-14,27,0,-2,-33,-128
14,36,52,23,5,4,3,5
50,-52,-78,6,8,8,45,121
-58,-124,-20,-25,-10,-6,4,-128
-12,-25,-36,-4,0,-4,-42,73
21,-2,42,8,5,-1,33,94
-7,-36,-7,6,5,2,3,127
42,25,27,44,-4,0,26,-91
-76,-128,-115,-79,-21,-19,-50,-128
-32,-64,30,2,1,-2,-22,-34
12,13,-58,-2,3,5,27,70
28,101,0,3,-6,1,1,-37
127,-96,-7,57,2,0,58,127
-92,15,7,-64,19,19,67,127
-40,16,-13,-37,-7,-15,-101,-128
30,73,57,58,-2,-8,-105,-125
84,-117,-24,-9,-13,-12,9,127
59,99,72,12,22,25,49,44
-53,114,-94,-31,-35,-39,-88,88
-128,-128,-128,-22,-19,-29,-110,-128
84,-38,-93,9,4,7,-1,-69
-9,40,127,-23,-9,5,25,105
-22,70,-40,-25,-11,-10,40,31
-27,72,-63,-7,2,-6,-23,-90
-1,-95,-35,54,24,14,14,-38
-68,-2,-94,-65,-74,-45,-29,-44
-12,-87,-31,113,-14,-7,6,3
29,124,14,-61,67,27,27,34
34,-4,49,-58,-9,20,33,57
7,57,47,-40,11,7,-2,43
-8,-24,40,74,-2,-4,11,-108
7,49,23,14,-41,-8,-10,-2
23,11,-78,-29,-6,8,-5,-1
-1,-125,-128,-71,36,21,20,-8
-46,-3,-25,-29,-9,-10,7,-63
9,16,1,61,-5,-9,-9,127
55,38,8,29,8,-3,41,112
-20,-35,17,21,-15,-16,-29,60
-29,-51,-56,17,-8,-9,-1,-49
6,-56,-15,31,-15,-6,-17,7
11,0,-3,28,12,5,10,30
14,13,-19,-128,-14,7,10,10
-2,-14,23,122,7,-7,-19,-22
4,15,6,52,1,-5,-2,-12
4,-19,29,-128,-22,-1,-2,-7
10,0,-41,-34,-6,8,2,-6
21,87,12,45,4,7,5,-15
-36,-128,-128,69,0,-9,1,11
-22,-13,4,127,12,-2,-1,-10
-10,20,15,127,30,11,5,-28
59,-50,-43,-128,27,27,45,52
6,127,107,-51,-19,-11,-21,-6
-62,-128,-68,127,18,-26,-74,-85
5,64,-34,-73,-39,3,22,0
-9,20,15,-128,-55,-19,-19,-13
9,-20,17,41,39,11,22,21
-3,-25,-38,-54,-23,-4,5,-4
4,34,44,-128,-58,-9,-7,-9
19,-2,-55,78,9,-14,-2,-1
-14,-47,-50,50,48,24,36,21
-24,47,67,-43,-18,-12,-43,-25
7,26,17,19,-3,7,25,-11
7,-43,30,72,-7,-8,-15,33
10,-39,-49,35,-8,-6,22,29
-2,-27,72,-44,23,23,-7,-128
-11,14,-5,-61,-15,-3,-4,-34
7,-34,0,26,-20,-7,28,11
13,88,-49,-15,16,5,-6,32
0,62,89,127,39,-10,10,13
20,-128,-93,14,51,37,4,34
-78,23,-109,-128,-64,-27,-41,-34
-33,12,-27,-8,-1,-11,-39,-62
24,127,33,99,-6,-3,7,47
5,-128,0,61,-26,-3,37,-2
-7,-1,2,-37,20,-18,-59,-39
29,87,-14,-3,25,16,11,14
-9,-31,60,42,4,1,-9,6
-61,-106,-71,1,-24,-20,-41,-32
25,22,18,60,16,6,65,27
-4,20,14,-47,0,0,-18,-23
-20,-35,-29,-114,9,22,-21,-34
5,6,-7,-50,-12,1,24,8
14,20,76,10,17,6,3,-23
6,-59,-46,31,-8,-8,21,-37
9,40,40,17,-27,-12,-5,16
-11,92,87,127,3,-20,-8,-12
-47,-128,-119,13,52,15,-34,-40
8,-93,-44,-128,-39,0,12,44
18,27,-21,127,11,-3,-6,-1
-24,45,-4,127,-18,-1,34,27
-10,-43,-10,-96,-24,6,38,-36
-15,-3,-15,-101,12,6,-1,-38
17,38,27,24,25,0,3,15
-2,12,44,23,-19,-11,-8,15
5,1,13,19,-4,-10,-3,16
2,11,10,30,0,0,-18,-4
22,75,75,20,3,6,19,52
-7,-102,-32,-6,-7,2,2,-15
-69,-107,-28,-14,-6,-8,-7,-50
5,44,11,64,-16,-19,-46,3
-3,-16,39,58,0,-3,8,-26
-11,-64,-58,-96,5,12,0,-22
27,123,74,17,27,19,5,4
-6,-128,-117,-128,-39,5,24,25
-16,44,68,127,-9,-7,-9,4
-13,-43,-30,-104,7,-18,-12,2
-6,34,-59,52,20,2,-13,6
-9,-18,-16,-128,-14,12,0,-39
22,-43,-6,14,18,19,12,16
6,-7,-7,-11,-4,-3,11,29
11,22,18,-31,6,9,-4,5
3,39,17,27,-16,-11,26,30
-33,-22,22,28,-19,-4,-24,-86
29,60,41,49,12,2,-7,-32
21,-128,6,18,-3,-11,18,106
3,47,21,10,1,-8,-14,7
-14,-28,3,-1,3,3,2,14
6,-5,7,-16,-18,0,6,18
16,62,47,10,35,24,75,23
3,-93,-56,5,8,-16,-45,-16
-44,-19,127,121,-14,-19,-13,4
0,27,-7,-47,-28,-16,1,12
1,4,-35,-128,-34,8,-26,-16
-8,-25,-33,-9,28,15,19,10
-6,109,53,23,5,3,-6,-11
4,-72,-24,127,22,-1,-10,-15
-5,-9,-25,-114,-4,2,-7,-5
16,75,67,-86,15,19,16,16
3,-66,-93,40,-14,-13,2,11
29,71,51,81,7,4,1,20
-10,-96,-128,28,16,2,-2,-4
0,31,63,86,2,-3,5,-48
5,18,0,21,-6,-2,-10,30
-6,-110,41,-48,6,-8,-27,-14
15,32,19,5,-8,7,7,3
7,47,-41,59,14,-4,-2,26
-4,-32,7,-102,25,8,23,0
-40,-19,-14,-40,19,-2,-59,-59
20,90,45,19,-1,6,8,5
-12,-128,-14,38,1,-4,8,5
7,32,5,31,-2,-1,-3,9
8,29,21,18,0,0,-2,-65
30,18,-31,6,-1,8,14,116
1,-41,31,42,-10,-14,-12,-8
-6,52,38,127,-20,-26,-26,10
-39,-19,39,19,59,11,-16,-23
17,34,-37,-128,-21,32,26,30
-9,-67,-60,42,-2,0,4,11
1,23,19,36,-6,-5,-1,-7
18,-7,-25,127,10,-12,7,26
16,127,127,22,6,8,9,8
-57,-128,-128,-128,-25,-12,-7,-46
-17,-26,11,-88,83,28,10,-12
43,65,19,-47,-27,6,2,7
-21,17,73,10,-31,-19,-12,-10
12,127,71,49,-16,-14,-4,-8
-7,55,15,89,-22,-17,-16,-28
-5,-36,-3,-11,28,14,-7,6
9,19,6,-79,1,-3,1,-35
14,6,-28,-13,6,1,0,86
4,-47,1,-9,-2,-4,12,-20
-20,-108,0,-3,-1,0,3,-3
12,49,6,0,3,4,6,7
-8,1,-3,3,0,6,5,62
-18,-13,-13,-17,-17,-14,-21,-59
11,22,48,61,-17,-16,-21,5
8,40,44,106,-10,1,28,8
10,-72,-128,-128,74,45,1,5
11,-1,9,-20,-28,-11,-3,38
-24,-60,32,10,-18,-6,2,-10
16,18,23,50,-12,-2,-13,14
4,54,1,45,-9,-11,-10,-18
5,-2,26,48,-25,-12,-17,-12
-6,-11,-44,-65,53,18,-5,4
23,-15,24,-88,-8,-3,23,36
22,86,60,-30,28,4,-4,-46
-36,-128,-109,-6,-12,-6,-13,-23
1,8,10,57,-6,-2,-13,7
21,31,4,43,-3,1,39,124
-47,30,-3,-72,-9,-8,-50,-128
19,1,-17,29,-6,-12,-21,62
1,19,40,57,-21,-4,-5,17
-8,4,-9,-60,-5,1,-4,-21
16,5,-7,-128,21,26,19,21
-5,-38,-43,2,2,-4,-8,-5
-22,-12,30,20,-5,-8,-10,-22
7,1,9,22,-2,-6,4,25
17,12,16,58,-7,-5,24,26
-8,-25,3,49,-18,-16,-31,-29
2,20,-9,-128,-44,2,3,-23
-39,-22,1,33,44,1,-15,-23
20,32,14,83,20,0,-1,23
-13,-22,-38,-128,23,16,14,17
6,2,-17,-20,-23,-10,-10,-33
9,3,82,58,7,5,-1,3
-34,-8,-6,21,-19,-19,-23,-20
3,-2,10,24,-6,-3,-4,18
20,6,3,24,1,-4,-17,8
-25,-27,-5,6,-9,-9,5,-36
-34,18,15,-53,-7,7,9,-11
17,117,26,-7,-14,-10,-7,0
3,-51,-37,-7,9,-2,-5,-22
2,-23,-15,26,22,6,2,5
4,53,-38,-55,-8,0,4,16
-16,-26,34,-16,-1,-10,-29,-31
8,-20,1,23,-5,1,-13,8
18,31,8,-31,-12,-3,29,7
-17,-9,-4,59,0,-13,4,-40
4,-9,-9,-25,-4,-5,-9,-7
19,20,-7,-61,-2,4,14,15
23,39,45,83,-29,-14,-10,8
-13,-59,-4,-11,28,8,-2,-7
-3,11,43,-35,1,6,9,5
-9,-52,-28,-128,-16,-1,-1,-2
5,11,5,-10,2,2,-7,5
4,-6,12,17,-10,-1,12,13
3,13,-1,1,-27,-14,-14,-8
3,51,18,24,-24,-9,-16,-1
-6,-37,-42,-65,-16,3,15,2
1,35,-41,6,17,10,6,12
16,-90,11,-8,2,6,2,2
-17,-13,20,44,12,-3,-11,-15
2,15,12,-27,-11,-5,-5,0
-4,11,-10,-13,-17,-8,-7,8
14,16,-19,8,-11,-9,22,63
-10,7,10,22,-9,-4,-33,-35
3,1,7,-19,-4,5,2,5
-14,-128,-3,-13,11,-1,-21,-21
25,80,61,37,25,16,-11,12
-47,-59,-60,-28,-19,-15,-21,-32
-13,2,-32,-21,-15,-15,13,13
7,28,6,4,-1,-9,13,9
7,-5,-35,43,2,-10,-7,11
1,7,25,51,-22,-14,2,-7
5,67,49,67,6,6,14,-9
6,-128,-92,-128,26,24,-6,7
-60,-98,-2,-82,-2,-14,-13,-29
-3,12,1,62,-44,-13,-12,0
-3,3,12,-8,27,7,-6,4
12,31,27,103,18,-1,4,16
0,-64,-50,-64,-22,-12,-9,4
-9,3,14,127,35,9,2,-7
-13,1,-2,-69,-11,-5,-4,-21
12,-9,-3,-24,-9,-4,-5,9
-3,16,-3,-8,2,1,8,2
-4,-7,2,15,-2,-4,-6,11
-6,-4,14,-2,-23,-5,-2,0
-7,-13,2,6,21,0,-6,-4
2,60,10,27,-14,-7,-2,-5
17,-3,-3,-2,44,18,15,29
-22,-7,-6,-21,0,-10,-7,-35
3,16,16,10,-4,1,4,-19
-3,-2,8,18,-19,-14,-8,-2
-5,-3,10,73,-1,-2,-5,-2
9,46,-45,-128,-27,7,15,13
-6,-45,3,36,14,3,2,-3
-16,-48,-7,35,6,5,8,-8
11,39,32,19,-26,-3,-7,-12
33,45,16,-7,39,13,22,26
-19,-128,-81,-43,-24,-1,7,-10
-12,8,17,1,-11,-15,-9,-23
16,59,24,66,22,4,4,5
0,9,-20,29,37,11,-1,-5
2,7,-12,-59,-20,-5,0,13
17,-18,20,59,-11,1,9,10
-5,39,-8,-22,26,7,-20,-8
-4,15,-4,-19,-10,-8,-1,-9
1,5,15,12,-6,-12,-13,-8
-5,-6,8,34,-3,-5,-16,-13
4,6,7,37,3,4,0,7
-4,0,-5,-49,-36,3,17,5
-1,0,7,38,91,19,9,3
-1,105,-10,4,-18,-5,-15,-21
0,8,12,26,-3,-8,-11,-1
-16,-29,-2,-99,9,6,0,-17
10,-10,-36,30,2,5,1,1
-3,9,-26,12,22,-7,4,1
-20,-128,20,17,-10,-4,-18,2
-13,1,-7,-128,-45,-4,-8,-30
1,12,8,76,16,-2,-9,-3
3,-16,6,-99,-19,-3,1,7
7,6,3,26,7,-2,-7,8
8,90,57,127,49,15,-7,-12
-29,-104,-57,-93,-31,-19,-21,-19
-15,21,-16,21,9,-11,-1,-2
8,-2,8,13,-8,1,8,10
3,40,30,15,17,15,2,5
4,3,-8,-15,14,7,7,6
-17,-19,-22,-62,-29,-12,-2,-26
-5,9,5,37,-6,-5,1,-10
34,51,21,3,-33,-1,-4,27
-21,-88,-7,114,11,-16,4,-19
-1,-35,-61,-128,-4,22,-9,-16
3,-21,-2,-12,-33,-3,-7,-4
-15,-3,2,18,50,-1,-5,8
9,15,23,61,-2,-3,4,12
-2,71,-13,-94,-27,8,16,6
-7,-15,-17,-51,-28,-11,-16,-11
12,88,23,86,17,4,-3,7
-9,17,16,-58,-43,-18,-16,-1
3,-28,-5,-13,-11,4,-8,-16
8,-8,-5,61,46,11,4,5
-6,12,-14,-128,-18,-2,6,0
-27,-118,-54,13,-18,-9,-11,-4
9,7,18,-39,-22,-4,-10,-6
-9,-2,19,107,-21,-17,-15,2
-9,-57,-3,-43,70,20,1,-4
-7,4,1,-1,3,6,7,-1
10,12,1,-97,15,17,10,7
3,12,3,-15,-17,-1,4,-1
-11,-58,13,45,-6,-10,-8,-15
5,1,4,101,9,-6,-2,18
-15,-64,-55,-128,-33,-9,-8,-10
-11,4,12,40,-2,-11,-18,-11
-5,2,6,127,26,9,17,-16
23,8,35,-102,-12,9,7,22
-7,-13,-51,47,28,3,-5,-18
-27,-18,-16,-35,-28,-17,0,-8
-4,-48,19,127,26,6,-10,-9
-16,-23,-24,-51,73,19,3,-2
15,97,13,-128,-22,5,6,6
-1,25,25,4,-23,-12,-11,5
-10,-22,-11,74,21,-4,-4,-6
-18,-7,8,-102,-40,-9,-8,-18
-10,-2,19,53,-47,-15,-5,-10
-11,-23,-61,30,75,15,3,1
14,-2,14,-57,-14,-3,8,12
-1,2,17,25,9,7,5,-4
0,94,61,65,-2,-15,-11,1
-3,-49,-26,60,-25,-29,-33,-12
17,-6,-30,-128,-23,13,13,30
0,-8,-28,-54,4,10,5,2
5,18,37,26,-3,-14,-10,0
-21,-16,15,104,42,5,-6,-14
-16,-20,-94,-39,-48,-14,-11,-11
27,4,-21,-128,-19,10,15,23
2,21,44,127,22,6,-1,-13
-1,-11,-12,-82,21,16,16,9
-6,12,6,-71,-78,-12,-2,-6
4,4,12,127,100,18,-3,7
3,2,12,-128,0,11,13,7
-8,-80,-59,-13,-8,-16,-19,2
-10,-14,-1,-40,-34,-13,-1,-13
11,41,18,47,9,5,3,-4
-7,46,-4,64,-1,-11,-16,-8
-27,-61,-2,-14,-8,-10,-1,5
-5,25,-31,35,30,11,0,-20
1,-31,-32,-21,-18,-10,-6,-3
2,9,-28,-34,-5,5,9,-9
15,13,38,96,-6,-8,0,20
16,-7,9,64,94,31,20,27
5,15,-7,15,7,4,-14,2
5,5,-4,-58,-16,-8,-4,-5
-1,43,-89,8,-17,-6,4,-6
0,10,1,16,48,14,3,11
10,24,11,3,-19,8,19,-13
2,12,83,80,-2,-5,-15,21
-25,-20,-27,-120,-4,-3,-18,-24
0,-35,7,-4,-7,-3,4,49
-13,-29,-5,10,-4,-1,2,3
-7,33,23,4,-8,-10,-13,-25
8,5,-5,30,-29,-8,3,19
-9,-31,-7,61,67,9,-6,-6
12,47,36,-128,-47,-5,13,5
-14,-79,-62,44,21,1,-12,-4
2,-6,-9,21,29,5,4,-3
-5,3,53,63,-5,-6,-4,-13
-9,1,89,97,17,-9,-2,-27
-7,1,-128,-128,-13,6,-5,-17
44,28,51,127,-9,11,18,39
1,-5,2,-128,1,10,1,-12
31,27,-25,-84,1,5,26,50
-29,-83,-36,84,-14,-20,-16,-5
6,-1,6,53,31,17,15,10
-15,3,-15,-59,28,14,-20,-42
-1,18,21,-11,-4,-7,-13,-30
-7,-22,21,61,-14,-11,0,-5
0,14,-19,-70,-3,-3,5,0
4,17,-14,6,-20,-7,-7,19
-5,72,12,127,50,5,0,-3
7,0,5,-89,-23,11,4,-2
-8,-9,17,-107,-13,5,-4,-21
-1,16,42,44,0,-17,-19,-13
-21,-77,-64,-13,9,-2,-9,1
-12,1,-21,-59,-15,6,-13,-27
-17,-7,28,64,-58,-23,-27,-38
6,14,8,108,67,2,7,14
-6,1,32,127,55,7,2,0
16,34,-10,-128,10,18,7,9
-7,18,-35,-128,-64,10,11,-10
24,13,10,39,-1,-8,4,31
15,7,-16,-8,20,-6,-11,20
-23,-120,-14,114,43,7,-2,-26
-2,-128,-78,-128,-85,4,3,-5
-43,29,45,127,18,-14,-15,-37
-51,-27,32,127,-20,-11,-24,7
-13,-6,-34,-128,-25,-4,-15,-24
2,3,5,-26,14,-13,-7,18
5,-44,-60,38,8,1,16,-2
-5,61,30,25,-2,-6,-23,-55
17,8,-27,66,3,10,13,13
27,43,28,-65,-13,-2,3,18
-13,-2,-14,9,-21,-17,-7,1
-15,-67,-10,97,-2,7,2,-9
3,1,-19,-97,7,3,2,-10
-4,-22,1,-48,-35,-7,-6,-4
-1,13,-9,-56,-6,10,7,2
14,33,-11,-90,-27,-11,-6,5
5,42,43,39,7,-2,-9,4
-15,-128,20,127,108,26,2,-5
-12,-14,-50,-63,-7,-5,-7,-25
50,25,-3,-128,-21,2,12,50
-2,-8,3,-79,-34,-2,2,18
-9,31,39,46,-10,-22,-48,-42
-29,-29,-42,102,1,-3,3,-31
-30,-17,-53,-128,-41,-23,-27,-8
7,15,16,56,-23,2,2,-10
9,-38,4,8,36,17,6,23
-4,-66,-14,-44,21,9,16,2
-7,105,-5,-38,-14,-6,-1,-24
-5,-40,0,127,51,6,-6,-4
4,25,-10,-74,-9,1,3,0
5,41,8,120,-12,-17,-5,6
12,63,18,41,1,5,2,6
1,-55,-3,-128,-101,3,20,5
-17,-67,-56,127,64,10,5,-6
10,23,-27,-128,-65,-2,-11,2
1,0,20,39,12,7,9,-13
25,73,36,-38,-2,2,-8,16
-1,-36,-77,73,36,-9,-8,8
5,6,4,-9,27,3,19,-7
-13,-45,-27,57,-25,-18,-19,-3
-15,-1,-6,-85,-7,0,-12,-6
-11,-59,3,27,-14,-8,4,-9
11,19,0,69,42,17,31,25
-11,30,-14,-128,-21,-4,-18,-32
-2,3,23,25,-7,-5,1,-5
-12,-30,-31,-81,-9,-1,-10,-8
-6,-8,-10,72,30,-2,-28,-22
19,42,4,9,-3,-8,2,41
3,8,5,80,-12,-17,-10,6
-27,45,13,-31,2,5,-5,-17
4,-16,-32,-128,-25,6,-2,1
-4,16,23,86,-31,-13,32,3
-1,-24,-17,-37,16,1,-16,-1
-20,-75,-26,-74,-12,9,-3,-10
10,-79,10,74,-18,-17,13,30
-18,29,24,127,86,-18,-43,-21
-17,9,24,-5,11,12,5,-19
13,19,-33,-128,-44,6,4,20
11,45,22,43,4,-2,2,11
-13,-119,-46,17,15,-4,17,8
-6,55,21,49,-17,-12,-26,-33
7,13,-5,-32,-3,-6,-9,-4
-6,10,29,106,48,6,0,-2
10,62,21,1,9,9,3,0
-6,-37,-60,-5,-12,-10,-11,-7
0,-37,7,15,6,6,11,26
-24,-26,-6,-38,-19,-14,4,-23
-5,-24,0,-68,-39,-24,-21,-26
7,-10,22,71,-20,-16,-20,16
1,55,-34,-126,42,25,23,-6
9,19,-4,32,-32,-2,-6,-8
4,4,4,65,28,15,2,-9
25,12,20,-11,17,16,37,48
7,-15,-31,-119,-32,-14,-12,9
-14,-6,39,127,28,-11,-25,-41
6,66,8,-128,-5,17,18,-6
-7,-80,-54,45,-14,-1,-6,2
-11,1,-2,96,44,4,0,-4
4,41,16,-48,-28,-2,6,-15
-2,-18,29,53,-6,-15,-17,6
23,40,-2,-68,-14,8,13,21
-51,-59,18,-4,-14,-10,-17,-17
-1,37,9,47,-5,-8,-18,-10
-9,-21,-43,-128,-23,3,6,12
1,24,-6,16,-2,0,-7,-17
13,-4,4,-16,-12,1,5,19
32,-16,19,24,1,-3,8,18
7,51,56,13,9,1,-6,-5
-8,22,16,57,-19,-10,-7,-8
-9,-31,-29,-84,-11,-1,0,2
-10,-31,-38,-64,-5,7,14,-4
8,15,4,-53,-5,6,10,-8
7,-25,6,33,2,-12,-29,5
5,44,18,111,16,4,7,5
-12,-19,-45,-128,-28,16,23,-12
-25,-1,2,97,31,5,-10,9
4,11,27,55,1,0,3,0
22,75,10,127,23,-21,-24,-3
30,32,29,12,68,34,33,51
-6,-5,-45,-128,44,25,4,1
-4,-46,-13,-22,-22,-6,-10,4
-20,-128,-17,79,-20,-20,-20,-3
-28,-91,-94,32,-26,-30,-10,-29
6,72,12,33,19,8,4,-2
7,38,29,-2,-14,-7,-8,-30
8,11,-16,7,-5,-2,-2,14
20,61,35,-6,11,0,2,14
-8,-10,-4,-31,-13,2,3,-1
-12,-10,-20,-24,-10,-5,0,-22
17,27,46,105,-34,-20,-18,21
38,44,39,21,92,32,23,28
-34,-49,-106,-128,-7,4,14,0
-28,16,10,40,3,-16,-19,-16
0,-54,10,48,-51,-15,-14,-7
5,44,2,2,18,18,16,16
15,-73,2,-56,-37,-13,0,12
-13,2,26,-62,-12,2,-6,-25
6,56,37,127,47,3,-10,-18
-1,-30,-31,-57,34,6,8,-5
0,-16,24,-23,3,2,-1,8
12,9,-15,-38,-11,7,12,12
3,31,12,39,-13,3,6,16
-19,19,5,25,14,-11,-27,-33
3,-42,-7,29,2,-5,0,1
-15,40,45,31,1,-5,-7,-5
1,-1,2,58,10,2,10,11
7,-20,7,85,20,7,11,16
8,17,0,-42,-14,-3,-5,9
3,-11,7,-102,-72,-6,-2,5
5,-9,-19,-10,67,25,13,0
0,45,-1,-84,2,4,11,-16
-22,-18,13,-16,-11,-10,-12,-13
-10,-33,-23,93,6,-16,3,1
11,28,43,86,-9,-2,-7,24
3,-17,-33,-128,-22,1,9,8
1,-88,-7,21,-18,2,0,-18
-5,44,36,107,2,-4,-15,-24
-1,9,-24,112,90,20,0,3
17,29,11,-128,-46,-3,23,10
8,51,27,-127,-1,3,3,2
-13,-128,-71,11,2,-6,-3,-3
7,-35,-5,50,10,-1,4,7
-13,-37,-4,23,-38,-17,-14,-6
0,0,-16,37,-4,-4,-7,12
7,-20,-41,-128,-16,14,22,-10
-10,2,-5,6,-8,-6,-5,-2
-14,37,12,18,-14,-2,-9,-12
-8,-31,8,64,32,-3,-7,2
17,47,22,64,28,12,1,-8
33,16,-4,23,5,5,27,34
-22,-68,0,31,-15,-14,-28,-42
-6,-12,-24,-128,-36,-9,-2,-1
-5,64,-2,-37,-17,-1,15,-2
-1,6,46,73,-4,-1,1,0
5,-33,-95,14,45,20,3,0
13,22,14,56,-34,-13,4,-3
-5,-9,-47,-124,3,9,-7,5
7,47,31,-22,13,0,3,1
-8,-32,-18,-74,-17,-6,0,1
-6,11,29,97,-15,-9,-14,-14
3,-8,-1,-32,-23,2,0,4
8,15,-12,-32,-2,-3,4,15
29,17,14,60,30,9,13,14
-22,-9,2,-91,-2,3,-13,-10
-20,-55,-33,-101,-19,-3,6,-5
19,-3,-17,15,-1,-4,-11,13
1,-73,0,-40,-26,-4,15,7
-2,18,3,31,17,-10,-33,-26
16,32,33,97,9,-2,-8,-9
-44,-18,-19,12,21,7,9,-23
1,4,0,-24,-13,3,-3,0
2,-3,1,-23,10,5,9,15
-11,-4,0,-5,-15,-12,-13,-19
8,-11,-7,-15,-11,-4,1,3
7,10,19,10,-2,-5,-4,1
-18,12,-38,23,-5,0,-3,-5
12,75,40,60,22,2,4,6
-2,-92,-72,-18,5,0,4,0
-19,4,-16,-128,-41,-9,-5,-23
15,13,29,76,-25,-11,9,18
16,-24,-2,-77,46,21,1,24
-16,-6,3,-7,-3,6,27,-27
-33,-20,-5,39,-8,-8,-16,-26
4,65,7,-23,-34,-17,-15,-10
-1,-31,10,34,-17,-10,-11,-1
-6,-46,-37,21,18,5,3,-4
28,57,26,-79,-8,10,9,26
3,-42,-39,23,6,-5,-9,9
-31,-85,-9,-67,-18,-11,0,-31
-9,59,23,62,21,-8,-23,-12
5,2,8,-7,-4,-5,6,-2
-5,-4,-6,-16,-27,-5,-9,-6
11,18,9,-5,-25,-4,-4,2
7,7,0,14,32,14,9,8
-5,-14,-13,22,-7,-2,15,-14
1,19,11,10,13,-2,-3,-11
9,8,15,3,-22,0,3,7
-13,-82,-72,-82,39,11,8,-10
-1,-21,-15,-84,-6,-4,7,13
3,41,4,2,-39,-20,-8,-22
12,25,22,91,6,-4,-9,9
-27,-64,-39,-79,-40,-9,-12,-15
0,-41,9,125,66,25,5,-2
17,47,-14,-113,-6,9,28,10
14,22,2,25,-11,-9,-6,4
-20,8,11,35,8,-8,-9,-7
16,44,49,127,0,-1,11,22
4,-25,-4,-84,16,8,-1,2
-13,-13,9,-98,-32,-18,-3,-8
-5,10,7,27,-2,-9,-39,-43
-14,-18,14,33,-3,-4,-7,0
3,10,8,18,-6,-3,0,-3
1,6,11,16,-3,-2,5,0
5,8,-25,1,-1,1,-1,7
6,19,-4,10,4,2,8,-1
14,16,0,-25,-14,-2,7,4
-4,-1,13,27,-30,-15,-18,-1
-11,-45,-7,115,45,18,22,5
3,27,10,-122,-4,8,2,-14
16,10,-29,-29,-15,2,11,17
-9,-18,-7,0,7,-7,8,-7
-1,4,-14,-58,-10,0,-4,-12
2,-15,-2,-41,-13,-4,-5,2
3,20,21,28,-34,-9,-4,-5
0,8,32,127,72,15,8,1
-2,-14,-38,-128,-36,2,-5,-1
-8,3,-16,94,24,-2,-21,-18
15,27,18,48,22,11,32,13
15,68,7,-68,-5,9,-4,-6
-12,-22,-18,-17,-15,-18,-25,-1
-6,-46,-5,0,-6,-4,-2,-13
1,-40,-7,26,-4,-3,-15,0
10,-4,8,4,3,2,10,10
-4,28,14,31,-6,-3,5,-15
10,19,-1,5,6,2,10,20
-4,-5,-2,20,-6,0,-3,-6
-8,29,-10,-42,15,7,-6,-1
-4,50,-8,-95,-18,-2,-3,-4
5,0,0,8,9,6,10,15
-3,-2,-15,23,-6,-7,-20,-26
4,-16,1,3,-49,-21,-12,-1
-9,1,24,89,21,1,2,-9
6,-37,-18,0,51,26,17,8
-1,28,-47,-88,-34,-9,1,5
-6,-10,21,17,-13,-12,2,5
-12,-22,-12,27,-8,-5,-16,-70
-1,-2,1,-57,-48,-27,-13,1
5,23,33,127,5,-3,7,14
-4,11,-32,-79,16,11,-8,-19
-17,-30,-42,-75,-28,-2,-8,-6
6,-33,-19,1,1,-3,15,15
-1,-103,13,26,10,3,-6,-4
-2,12,-4,-18,-12,-10,-11,0
7,9,7,31,-14,-4,7,8
-5,-70,2,25,28,11,-1,2
1,26,1,27,-2,-1,-4,-8
24,13,12,-63,-8,2,1,42
-32,-2,-11,4,3,-4,-12,-40
-12,-5,-3,-44,-7,-4,2,0
15,-7,15,96,12,-8,-7,-3
-5,1,-12,-44,5,-1,18,-1
7,24,2,-51,-20,-5,0,10
-17,-42,0,46,-7,-3,-8,-5
-1,-46,13,108,11,-2,2,-3
8,52,13,-11,-3,-4,-2,-5
16,16,36,127,109,41,28,43
-21,-128,-115,-128,-36,-9,-25,-26
-8,49,24,83,-29,-25,-14,0
3,-8,-2,-60,-24,-9,-13,-14
-4,39,-1,-44,-20,2,9,8
-12,-79,-26,42,-8,-5,1,0
7,4,-1,6,5,-1,9,4
11,10,20,-1,-5,0,-5,16
6,0,-6,71,4,1,4,14
-4,5,20,57,12,2,2,-7
3,3,-23,-104,-10,-1,-13,-15
-13,-11,-23,-93,-25,-5,-4,-9
13,0,-11,-7,-4,2,10,19
6,8,26,-6,-3,6,21,2
-23,-61,8,31,5,-16,-23,-30
5,2,8,43,-4,-10,5,12
-8,-17,-19,-30,-7,-2,-13,-7
10,15,11,16,-9,-8,-1,12
4,6,-8,67,-9,2,4,12
-9,-8,-19,-79,9,12,1,-5
6,3,33,52,17,-2,9,-2
3,13,-40,-128,-5,11,5,9
18,50,19,5,-20,-9,-1,9
26,-1,19,65,5,-9,-6,19
-19,-84,37,127,-4,-10,-21,-27
-27,42,-36,-128,-5,4,-12,-24
-2,12,5,62,16,0,2,-8
19,-4,-10,-4,-21,-11,1,24
-15,12,37,92,7,2,-13,-2
18,98,4,-18,-9,-7,-10,-24
8,33,13,36,-12,4,17,36
4,-25,-31,-128,-20,3,-6,37
3,11,-9,-29,-7,-5,-7,-7
6,-5,27,15,-11,-18,-22,-4
-33,0,-19,30,-4,-8,-21,-22
11,-15,-14,-70,-16,-4,-6,-6
-14,-14,4,-13,-26,-15,4,-5
0,14,-1,126,24,-8,-11,-2
13,22,-19,-27,0,3,0,12
14,93,6,-80,0,14,36,7
-4,10,21,52,1,-4,-42,-36
-34,20,-1,50,8,1,8,6
3,18,15,93,53,13,-4,-2
1,-11,-34,-127,-7,2,-1,-3
5,-10,-8,-44,-16,-4,-1,9
0,10,16,-26,-52,-15,-12,4
-17,-5,44,127,85,3,3,-14
18,4,43,-85,-27,2,13,13
-8,0,-26,-79,-28,-22,-28,-23
-4,2,-9,-6,22,10,-12,-30
9,4,17,-81,-37,-4,8,18
3,55,7,-24,-10,-9,14,7
-7,-52,-37,-10,-7,-2,-4,-1
-14,-4,-3,30,-6,-2,1,-20
14,18,15,46,12,3,5,23
6,30,8,23,-44,-13,1,8
6,23,43,102,81,16,18,2
-14,-43,-38,-39,-22,-2,14,-20
16,4,14,-85,-17,8,0,32
-27,-18,6,16,-27,-23,-14,-8
-19,40,6,-83,-9,-10,-31,-36
3,10,-28,-128,-37,-2,3,6
8,13,35,127,38,23,13,17
2,-28,-52,-128,-55,-3,-1,1
10,-3,17,18,3,-6,-8,8
12,57,41,96,-13,-9,10,8
15,2,-9,126,43,8,-3,-2
-4,-45,15,-121,0,3,4,6
-47,-60,-35,-3,-15,-18,-29,-32
26,44,21,52,2,6,9,20
-11,-36,14,33,28,4,20,5
-24,-56,-34,-56,-32,-20,-34,-48
1,19,15,75,2,-10,-15,9
3,26,0,-25,14,1,12,6
4,6,21,-90,-11,-2,4,7
-15,-36,-40,-62,-12,7,0,-14
-4,12,-2,39,8,-2,5,-13
12,-29,-16,-29,-1,0,-7,15
-17,12,15,5,-26,-15,-8,-15
-8,2,18,64,-22,-6,8,-10
1,-11,22,104,57,6,-14,2
5,33,-69,-128,-28,11,17,3
-24,12,11,25,4,-7,-5,12
-14,-10,2,-41,-27,-9,-4,-5
-10,16,28,11,-15,-18,9,-26
-16,-56,-64,127,22,2,-28,-27
18,16,-6,-105,5,10,44,14
-6,37,21,32,-30,-10,-13,11
-13,-8,-1,-119,-30,-18,-11,-24
-4,-9,-53,-128,17,20,17,12
-6,58,56,56,-10,-1,0,4
-4,-5,2,2,3,-9,-9,1
-13,-28,-26,21,-18,-1,0,-11
5,31,44,74,2,-16,-18,-20
12,-21,68,127,10,-9,-7,29
11,8,-101,-128,-36,20,23,5
6,-16,1,-128,-42,3,0,23
-1,-21,11,127,30,-2,-17,12
-22,-25,-2,95,3,-10,-34,-3
21,45,7,-19,-9,9,37,13
-24,18,48,95,-43,-32,-53,-51
-8,-13,19,127,92,-8,-29,-5
6,-43,6,-67,-3,0,1,9
-8,57,-91,-128,-86,12,9,12
-5,12,-11,-27,7,1,6,17
7,12,-1,-65,-30,-6,-9,-2
-8,36,51,12,-30,-13,-3,-2
-7,-71,-38,55,8,-18,-26,-31
1,32,47,127,-3,-13,-17,-7
-4,-18,14,-10,60,30,22,-4
-7,-20,-42,15,29,15,2,6
0,9,-5,-128,-45,-8,-1,-4
4,20,61,-5,5,-4,-3,7
-13,-39,-22,117,-8,-2,2,-7
-7,-64,-31,-128,-56,-18,2,-15
22,40,24,110,-4,-3,-5,12
-11,8,28,59,24,-10,8,-18
-10,-21,-37,-120,-20,4,-15,4
-13,16,-3,-103,-8,-6,-6,-2
23,41,15,127,31,7,13,34
-24,-83,-14,-21,0,3,-2,-21
8,-5,-7,90,31,-3,-24,-10
-46,-11,12,64,-15,-18,-14,-19
-6,-50,10,-80,11,8,14,13
-3,-1,-37,-128,-67,8,-7,-7
3,1,-22,-61,-17,3,4,9
11,41,23,5,-20,-4,3,18
9,-12,14,123,-7,-15,-16,-11
18,77,8,-96,-37,-7,-14,4
-8,-24,5,-24,42,5,8,1
-8,-128,-39,121,29,-5,-12,3
-17,38,-1,4,10,-4,-24,-24
-9,-17,-7,-6,6,2,-19,-30
-10,-1,-1,-9,-13,-5,-7,-16
-5,1,9,13,3,-4,-10,-5
7,-3,35,64,-8,-6,4,17
-21,-74,-76,-83,30,12,13,-15
1,6,10,-53,-13,9,-1,-5
17,27,2,-128,6,12,7,5
20,41,28,8,-3,7,7,11
-24,-32,53,70,-7,-26,-19,2
-30,-37,-4,56,-69,-27,-30,-18
-7,14,-30,-128,30,9,-1,-24
-10,-83,0,0,3,-2,-5,10
5,1,3,74,-6,1,-1,12
1,2,-20,-79,23,15,3,7
15,12,11,76,-13,0,12,14
-16,14,10,80,-19,-20,-28,-18
5,15,29,64,-17,-3,12,9
-13,29,-26,-101,-14,-9,-30,-47
21,25,2,39,84,19,19,2
14,-17,-5,-26,-9,7,36,36
9,39,-18,-27,-28,-16,-30,-10
-11,-12,38,4,-1,-13,24,19
-49,-46,-20,39,4,0,-2,-31
-6,-42,-42,8,-2,-8,-5,17
4,-90,19,56,-9,-2,-7,-2
17,-6,-8,-89,-14,4,11,5
19,43,-14,-1,6,1,4,40
-9,27,11,45,4,-3,-2,-36
-45,-57,20,70,6,-12,-19,-26
-8,-24,8,48,22,-1,-4,-28
9,-3,-31,-119,5,16,3,12
-5,10,24,79,1,-4,16,3
12,9,-7,-29,34,6,-4,18
3,28,-52,-128,-54,4,-3,1
5,32,50,127,21,-1,-6,4
-12,8,-50,82,-38,-13,-1,1
-14,25,5,-103,-17,-18,-12,-10
-5,-44,-24,63,13,-4,-7,0
5,46,7,4,9,12,20,-20
1,-8,53,91,4,-20,-21,18
6,-17,-22,28,-23,-5,-1,12
-1,31,-9,-97,-12,4,34,13
-8,-63,-64,-128,-25,5,-7,-18
23,30,5,-5,1,3,-2,23
0,20,16,25,3,-5,-7,3
-8,-95,-35,1,-6,-8,14,3
10,-27,7,-5,-12,-2,8,27
-17,-24,18,66,14,-14,-43,-66
-12,16,0,99,-23,-8,-15,-12
0,75,35,36,20,5,24,10
0,-21,-20,1,30,15,0,3
3,19,-41,-128,-48,6,0,3
8,23,31,-47,-6,-1,2,-4
20,88,52,127,4,-14,-7,14
-4,30,33,74,5,2,16,-11
-6,-54,-79,-128,-61,-5,3,-11
9,-71,26,96,-1,0,-1,18
22,-25,-6,-64,-37,3,11,13
-33,31,-6,-16,-2,3,2,-24
12,-51,11,50,9,-2,-3,19
-1,42,2,16,-2,-4,-2,11
30,24,14,43,-9,-7,0,13
10,11,46,127,4,-15,1,-18
-42,34,-37,-75,15,5,-5,-28
-18,-56,-19,-104,-30,-9,-7,-25
-14,-70,20,56,43,14,4,2
15,34,11,-36,-6,4,3,2
12,-11,-22,37,0,-4,5,5
4,22,18,-37,-15,-8,0,6
-12,-43,29,127,20,8,-4,-5
22,23,27,19,7,8,15,19
-8,-25,9,20,26,7,-1,-16
-2,8,-21,-128,-14,-3,-3,7
8,18,-18,-66,-26,-20,-20,0
-37,-61,-45,127,42,0,-12,-16
-10,-1,14,-85,-25,6,-3,-18
6,2,41,-39,-17,-7,-4,6
2,-40,14,32,-2,0,9,5
5,67,11,14,-3,9,8,-7
23,20,6,-13,3,-4,-18,-14
-7,-58,-28,-58,-29,-9,0,-20
-3,8,27,88,-13,-19,-19,0
-3,7,31,56,29,7,4,5
14,3,-5,-27,-17,1,7,14
6,44,-6,-50,-12,7,14,3
-13,-49,-2,-85,-17,-6,-18,-11
-2,38,-1,47,1,-3,13,-25
-13,-27,1,35,-2,-20,-33,-26
9,77,25,98,0,-9,6,21
-14,-27,-27,-26,-9,10,6,1
8,-21,-13,-98,-42,6,9,15
-5,44,46,71,35,7,-8,-2
4,-12,-25,76,7,-3,5,-7
12,-31,-30,-106,-35,-8,-3,11
21,68,67,119,0,-9,-3,0
-31,-1,-22,-128,2,4,-11,-23
-29,-120,-23,-36,5,-4,-13,-25
12,55,22,-94,-16,7,8,16
6,26,11,5,12,1,1,3
12,-19,-18,11,-11,-2,-2,11
-3,6,12,19,-13,-6,-1,-1
6,38,-8,84,4,4,-5,-33
11,-4,17,8,-6,-4,-5,11
-16,13,-22,-57,-11,-3,-9,-3
21,30,55,57,2,0,-10,18
-13,81,-67,-49,-13,-9,-26,-21
4,-21,-12,-39,-17,-6,0,6
17,1,11,52,3,-2,16,15
-17,54,-18,-91,-12,2,33,-14
-39,41,23,-20,-30,-7,-21,-12
14,-124,8,91,50,6,9,27
-19,-41,-20,21,25,8,-3,-4
7,15,-3,-72,-26,-4,0,1
-3,6,40,33,8,-2,-4,-3
10,19,-4,64,25,16,5,2
7,17,-12,-62,-2,-6,-2,1
-4,-4,-19,-16,-26,-1,2,-2
1,26,16,42,-4,-8,-3,3
-9,-34,-27,-54,42,9,-1,-1
10,52,27,-7,-22,-12,-3,0
-17,-52,-17,94,6,-10,-11,-15
16,42,25,-128,-30,19,24,-9
33,44,6,23,6,-7,-4,30
13,37,14,33,4,-7,-10,0
-20,4,-25,-117,-36,-11,-16,-4
9,22,2,26,3,-2,4,-11
-48,-56,-22,22,6,-10,-19,-23
-8,-25,12,18,-1,0,10,-3
11,-33,-9,18,1,0,18,8
9,5,1,-2,-7,-5,-18,-17
16,-33,-2,5,12,7,10,20
1,14,7,-3,-22,-11,-1,18
-14,35,14,-12,-31,-8,1,-26
26,-12,14,90,68,15,-8,3
-3,-28,-48,16,23,1,-4,-2
-19,-128,22,43,-10,-6,-2,-5
0,42,14,-9,48,27,6,9
2,12,-54,-128,-60,-9,0,-6
-7,-39,-10,8,-17,-5,-5,-12
8,-4,49,8,16,2,-3,3
-1,2,-15,80,-4,-4,-3,3
0,36,40,127,6,-15,-22,-27
-23,13,-15,-105,20,12,14,13
-23,71,-25,-21,-13,-8,-10,-12
-18,-128,-16,-7,-15,-2,-6,-21
9,11,18,24,-9,-5,-1,6
9,76,8,16,2,-4,-2,-4
19,85,18,63,3,-3,-2,7
8,-99,-12,-15,3,-4,7,4
4,49,1,15,12,4,0,-9
-5,6,-8,-33,-12,4,-1,-11
31,22,1,-128,-24,2,5,23
10,24,29,13,8,-2,4,2
-32,-71,-62,-101,-39,-17,-19,-14
-52,-97,15,2,-21,-2,3,-12
4,11,-2,-20,39,17,20,8
4,39,16,2,1,6,2,-2
1,-40,-9,14,-32,-25,-44,-2
-1,21,10,103,51,4,5,-7
-1,-15,-9,-73,10,8,-2,-2
0,26,16,110,16,-1,2,3
12,33,28,-7,-2,-1,8,0
-10,-128,-33,-12,-16,-5,0,-6
10,72,-33,15,-2,1,5,7
-12,1,2,5,-15,0,7,1
-8,30,18,-25,-23,-17,-26,-22
25,50,-3,78,14,6,-2,21
5,-13,-10,-128,-10,-1,9,-4
-23,32,19,-18,0,-3,3,-1
33,-50,15,66,-28,-20,-10,14
-27,94,41,104,65,6,-13,-9
4,59,-42,-128,-48,-10,-8,-19
-24,-128,-40,-16,-25,-6,-8,-13
12,62,30,51,6,3,6,4
9,-25,5,-41,-12,-2,-9,-8
8,50,21,81,10,7,18,-12
-14,-93,-25,12,2,-22,-19,10
11,16,17,127,23,-3,-1,0
-12,5,-10,-41,7,11,2,-30
-4,-6,-26,-54,12,9,-4,6
28,23,16,-82,-21,-1,-5,-4
5,3,10,18,-19,-3,2,20
-29,14,-8,43,6,-9,28,-19
2,-39,-19,6,-30,-16,-32,-23
-10,4,-4,-61,3,9,16,4
-5,58,29,92,11,-2,-2,-2
12,48,-23,-51,-37,-7,3,0
-20,-93,-23,-42,9,1,-8,24
-3,10,-21,-29,37,13,-5,-4
15,17,43,76,-16,-14,-9,1
26,38,16,80,0,11,9,6
-9,-26,-72,-128,-12,17,4,-6
0,-20,-4,-62,-31,-9,0,0
30,-54,10,27,-4,-2,6,22
-7,39,30,127,34,7,-2,-26
-56,-24,-35,-128,-76,-21,-16,18
32,100,-1,-37,-33,-11,-15,-9
-6,-27,-29,127,66,10,10,-5
4,20,8,-15,42,15,2,-16
-8,33,8,-52,-2,5,3,-3
-5,-61,-8,54,1,-1,-5,26
-10,-35,-65,-18,-41,-23,21,-27
-17,-12,7,60,0,-6,-29,-22
-9,-32,-9,-62,-26,0,-11,-6
6,39,11,-103,-12,4,4,4
3,-17,-25,6,2,-5,1,7
3,14,-9,52,7,-1,-4,-7
2,33,3,-30,3,9,14,18
-3,-86,-22,27,-21,-15,-4,4
-27,14,7,4,-10,-10,-27,-13
-9,-47,-43,-26,10,10,13,-7
25,49,-9,40,45,8,5,1
-9,-100,11,86,-2,4,2,-8
31,40,9,121,-10,-7,5,13
-38,-38,-26,-128,5,14,-2,-20
-2,8,41,127,11,-7,0,5
19,72,65,-40,42,8,-4,7
15,52,-6,29,-59,-11,-9,-8
-75,-124,-66,62,0,-22,-16,-12
-1,-59,31,94,51,1,3,-18
-12,-54,-6,127,47,11,-10,-8
26,15,-19,-128,-42,11,18,17
6,4,2,-102,-29,-4,1,7
4,23,17,20,-10,-6,-1,10
3,-19,1,64,27,-1,-5,2
-31,8,-7,28,3,-8,-10,-14
3,2,33,42,6,1,3,-12
-19,11,-11,8,-19,-14,-21,-6
6,38,-6,13,2,-4,-2,-2
11,5,-1,-53,5,9,7,3
-18,7,-7,-54,-17,-4,9,-5
17,48,17,-19,-4,-3,-3,8
16,-11,-35,38,5,-4,-6,-6
-56,-96,22,1,-28,-16,-5,-13
17,34,12,12,9,1,7,-4
5,-29,-34,19,4,10,6,19
13,49,-9,-128,26,10,22,16
-1,-53,-9,-47,-2,10,-9,-4
-6,-54,-29,33,-6,-4,-5,-14
0,51,30,118,-18,-14,-7,-1
4,21,15,47,58,17,-1,2
4,12,-6,-128,-36,0,0,3
13,13,19,19,6,4,8,13
17,43,12,110,10,-3,16,31
-13,-76,-33,-11,-8,-12,-27,-26
5,32,-13,-40,-19,-10,-24,-19
-27,-23,55,114,18,-2,17,-4
-32,28,16,77,31,8,-10,-4
21,-2,-22,-128,-14,6,11,12
19,56,2,39,-7,-21,8,11
-15,-22,-31,127,-15,-12,-23,-36
-38,-128,4,-57,47,20,4,-5
20,54,-5,-91,-20,7,9,14
18,56,12,52,42,14,1,8
-22,30,20,78,5,-8,-8,2
-5,-88,-18,97,-13,-22,-7,-3
-1,10,-18,-128,46,20,2,-11
4,-13,-22,-73,-37,-4,9,2
4,26,8,53,-1,-4,-17,-15
-30,-52,-19,62,31,2,21,8
8,-100,24,27,-12,-7,-1,2
-2,30,8,-128,-35,-6,1,0
13,43,4,73,4,-4,-19,-5
8,33,3,-17,7,1,-4,-13
-29,-112,31,111,12,-4,-13,-15
-7,20,-10,-128,-46,-4,5,-9
4,-17,-6,72,17,5,3,4
13,35,7,-5,-4,4,-2,6
31,-19,6,0,2,-2,-7,-2
-9,11,-6,5,1,-3,-5,-2
11,-4,-14,-84,-41,-10,5,-8
23,54,30,127,4,-10,-7,4
-54,0,4,-106,60,27,2,-9
-6,16,1,-128,-35,-10,-4,3
-6,-18,60,127,10,-26,-17,7
-10,-64,-50,66,44,11,-8,-18
10,-2,-13,-128,-35,12,12,4
6,12,-15,-78,-21,4,17,9
11,38,31,81,32,-5,-8,12
26,64,18,-6,-10,1,10,6
-26,-17,-17,52,7,-13,-25,-20
-34,20,-2,-3,-15,-22,-12,-17
7,-46,1,1,-20,-13,-12,6
-26,2,12,18,-5,1,3,-6
-23,-27,-4,43,13,-1,-2,-8
11,49,-31,-58,-6,2,5,-1
3,36,27,-13,-10,-6,5,4
0,12,17,7,-9,-4,0,11
-4,25,-6,-34,-6,-1,-10,-13
16,17,-3,-22,35,2,-4,-5
-6,-128,-11,59,3,-5,4,-4
8,-13,-11,-12,19,1,-4,-4
4,-10,-22,-42,26,11,-2,6
-4,-37,-16,-128,-23,-3,3,7
-3,107,-11,-26,-48,-16,-11,-4
-11,-44,29,29,35,3,13,5
-1,4,-18,127,44,16,-23,-18
-10,-54,-2,-128,-40,-3,3,0
9,9,12,76,-16,-13,-6,5
-24,1,32,83,17,-8,-25,-33
-16,2,-23,-110,-18,3,8,4
21,42,24,0,-20,-8,7,6
7,-21,-23,-5,-1,-7,-8,3
-4,-80,-31,-83,-19,-1,35,13
18,110,27,13,0,-3,-4,4
1,54,24,20,9,-2,-8,-6
-42,-106,7,26,0,-1,1,10
-6,-25,-8,22,-9,-5,-7,-4
36,43,-8,-89,-44,-10,1,12
-9,52,12,41,53,5,-11,-6
-16,-63,-8,11,23,20,6,2
-19,-15,2,-67,-18,0,8,15
7,15,6,-128,-39,-6,-7,-9
-17,-12,3,62,16,-3,-17,-21
20,72,-32,-37,-29,-13,-7,9
-4,-33,13,-25,-32,-12,-23,-13
-7,6,-30,-81,-5,12,-5,-14
-10,-128,-3,-61,-30,-5,3,8
-4,47,8,31,4,-6,2,-10
20,47,13,97,26,6,-1,3
-9,67,-26,-69,-18,3,-9,-10
-6,-52,3,-39,-23,-9,0,-5
0,46,23,27,-5,-13,-10,-7
12,-1,-23,-9,4,6,5,14
7,5,8,19,5,-1,-4,12
-31,40,5,13,-1,-1,-2,-18
33,20,-18,-10,-13,-3,-2,0
-33,-100,-2,11,11,-3,-13,-19
-43,-21,-31,-8,-10,-12,-16,-15
11,-16,1,-1,-9,-5,-4,0
1,28,31,127,26,-2,-6,-4
5,12,6,59,22,10,7,4
4,21,-61,-128,-48,5,-9,-8
6,17,25,75,-15,-16,18,1
5,48,8,112,-26,-14,-3,-1
1,-35,-30,-128,11,21,-14,-7
-12,-13,-1,115,33,5,5,3
-6,23,4,-22,-21,-9,3,-5
-2,-44,-17,9,-16,-8,-6,-7
-12,-3,23,127,-6,-9,-12,-2
-25,-55,-69,-100,46,17,22,-34
16,30,18,-44,-19,1,-1,14
9,-13,29,52,8,0,3,2
-47,-17,-3,-38,-23,-22,-31,-31
22,12,-14,23,-1,-2,8,22
30,-8,9,7,-19,-5,-6,25
-31,7,-12,-25,2,-9,6,-13
4,50,10,22,1,-7,-17,-2
-38,-10,-7,5,18,-2,-2,-20
39,29,11,14,-2,3,0,3
5,-6,-39,-51,-14,9,9,3
4,20,1,-91,-16,-4,-4,-5
1,-88,-28,-7,-12,-2,3,2
-7,7,-22,105,42,-3,-1,-2
8,90,-6,-128,-44,-6,-2,-1
15,52,47,127,56,10,7,6
-4,-20,-41,-61,-52,-4,-5,-10
-2,-35,-9,-24,5,0,-8,-1
-30,11,-46,-25,50,8,32,2
0,-26,-3,-29,-16,-17,0,0
-2,-12,19,20,-24,-12,-10,4
15,30,15,117,11,-16,-15,-13
-1,-31,7,-41,8,8,10,-2
-13,-42,-10,-65,5,7,0,12
13,10,19,37,-3,-3,-7,-7
14,14,21,50,11,-1,3,2
-29,32,25,17,4,-1,0,-10
1,-41,-25,-64,-30,-5,2,-9
17,3,18,-26,-17,-2,6,22
-18,20,0,33,23,-4,-14,-1
-6,-54,-29,-93,-8,7,13,-4
45,29,7,-13,-31,-11,-4,4
-14,-29,13,12,-2,0,-1,0
-22,5,5,105,50,9,2,-4
5,32,31,14,7,2,2,1
-16,90,-31,-30,-51,-17,-12,-16
5,8,-14,-86,37,6,5,1
-9,-37,-19,-18,-7,-4,1,-8
31,33,32,5,-20,-6,1,5
-5,77,26,127,47,13,6,-4
-29,-28,-58,-128,-24,3,-5,6
1,5,-15,-35,-29,-11,-10,-17
-8,11,4,11,-30,-6,-22,-11
5,11,29,50,56,6,-1,1
-1,14,-20,17,-3,0,14,4
-4,16,16,19,-11,-5,-7,14
33,43,-5,46,-10,-7,12,10
19,91,23,-32,18,5,-13,-13
-41,-116,-20,3,-9,1,5,-15
-12,-68,21,-80,-21,-10,-5,4
1,31,0,31,-1,5,-3,5
18,-22,30,60,16,4,1,-2
12,123,34,17,1,-2,0,-18
-24,1,-56,-128,-17,5,6,24
7,-5,-2,13,1,-10,-3,0
8,29,22,71,-36,-14,-8,-5
-8,-45,5,-5,47,11,4,-4
7,19,23,97,-4,-2,3,-4
-1,35,-22,-128,11,14,-4,6
-13,-93,-47,-54,-8,2,9,-6
16,1,31,16,-13,-7,7,36
-3,31,39,56,0,-8,-10,-11
-3,16,-17,-68,-54,-16,-12,-1
-7,-13,20,97,8,-4,4,-11
6,49,7,54,48,13,-10,-19
8,34,24,7,-8,3,-3,-2
-19,-9,-26,31,44,10,2,6
13,-11,-26,-65,-2,9,14,14
-18,16,10,78,6,-8,-4,-6
13,56,21,-32,-15,-12,-23,-8
8,-27,-4,-33,-25,-11,-4,10
43,11,2,16,1,2,-5,6
-32,-44,-51,-23,-17,-11,15,-16
-13,-37,-11,41,25,7,-8,-9
6,10,10,-20,3,1,-2,8
2,30,3,1,2,-3,9,4
0,-11,2,77,-2,-12,-15,0
-5,-21,35,15,-25,-7,0,-4
-2,10,-18,-17,8,17,-9,-5
2,17,11,75,-1,3,4,7
19,78,-38,-128,24,22,18,24
13,19,16,127,-6,2,7,-8
-8,16,9,23,-1,-4,-24,-12
7,-38,45,-37,1,-7,3,5
18,10,-2,98,-21,-9,-3,-1
-19,-128,35,127,12,-11,-2,14
-9,84,-14,-128,28,26,9,3
-8,14,-49,-128,-65,-4,-18,-27
1,-33,4,115,10,-1,9,16
1,35,26,53,-6,-14,1,-12
18,12,19,42,9,-10,-13,3
-23,-9,13,53,-6,-9,-17,-18
0,-23,10,11,17,0,0,6
7,7,3,-42,-2,0,3,-11
6,27,-15,-15,10,5,8,0
15,19,45,73,5,3,9,46
-25,30,53,74,-3,-5,4,9
15,19,45,73,5,3,9,46
-25,30,53,74,-3,-5,4,9
-10,73,-12,-75,-4,-8,-27,-23
-16,-14,-25,-128,-2,12,19,0
