Channel_1,Channel_2,Channel_3,Channel_4,Channel_5,Channel_6,Channel_7,Channel_8
15,9,-31,7,7,6,-47,-22
12,-4,18,-3,-1,-6,-4,4
22,-27,-128,9,-3,-3,19,-7
6,-19,-128,-42,-8,-4,23,-4
-5,-16,109,1,-2,-3,-10,-9
-3,-10,6,-1,-2,-4,-5,-4
8,17,21,0,-1,-1,1,14
6,20,34,9,0,1,-9,-4
11,-28,9,23,8,15,-9,116
-3,17,36,1,-5,-7,21,-18
-8,-8,-23,-43,-10,-13,-12,23
25,7,24,19,7,-3,-19,-22
-2,45,12,-32,-7,4,10,11
41,2,-32,34,4,-3,-26,19
-16,-35,-55,-39,-14,-17,16,0
-14,3,12,14,3,0,-19,6
-16,-9,27,26,0,-1,-23,-5
49,-14,71,18,5,1,-10,-10
-29,2,-47,-12,-5,-3,-17,-1
2,6,35,-7,-3,0,27,4
5,19,12,24,-2,2,7,0
0,-1,-42,-5,1,2,-9,-4
36,-29,69,12,-5,-13,-64,-91
15,7,12,-16,-5,2,38,-8
-21,15,-7,16,-2,6,36,18
18,-26,-5,2,-7,-27,-60,-8
15,18,42,6,7,4,6,3
1,11,-9,9,9,8,3,4
-2,56,76,-5,-1,3,4,0
8,-4,14,-2,-3,4,-2,-3
-10,-31,-73,11,-3,-7,-10,-4
8,-5,40,30,0,0,5,13
12,-4,-42,-73,0,1,4,10
61,19,24,-22,3,7,37,127
-8,23,52,17,0,-2,-13,51
-38,24,44,42,1,-12,-86,-83
7,13,18,-3,-2,2,2,18
-2,11,18,-91,-12,6,2,-31
15,47,83,92,4,4,19,91
38,65,121,-112,8,4,-33,-128
-20,-50,-128,-7,-8,-4,-4,17
-33,-114,-128,-22,-29,-25,-20,-3
6,7,68,14,7,4,10,1
-2,20,50,20,4,6,55,80
-15,-37,-22,10,3,2,51,-12
1,26,17,-1,-2,-8,0,-4
11,28,19,-5,1,4,16,20
14,-5,-68,-21,-3,-4,-24,-31
27,17,16,-2,-4,-4,-12,-21
-91,19,41,-3,-4,-11,-28,-53
17,-9,-53,-11,4,6,0,12
-32,-74,-4,-1,-27,-28,-21,-20
-4,-12,-51,-17,-5,0,1,-4
-2,0,51,5,-5,-6,-20,-12
6,21,47,30,21,10,18,3
8,21,18,-7,-5,1,11,-37
4,5,37,14,0,-1,-2,9
0,39,2,-2,-9,-1,-13,33
-14,-49,-36,-38,-3,-12,-10,-41
5,2,30,19,7,-2,-10,-26
4,30,-33,38,6,6,9,92
37,15,-88,-55,-11,0,-2,-25
-41,0,-10,-15,-9,-4,-13,4
-11,-29,-22,-22,-14,-9,-1,37
13,-20,24,24,7,7,13,12
3,127,117,12,1,1,18,25
19,1,36,23,10,3,-29,-42
-13,-82,-100,2,-3,-6,-23,-92
-76,46,127,65,3,-1,-6,-12
14,-48,-128,-39,-3,1,19,127
16,26,32,-29,-9,-5,6,85
6,-58,-1,-55,-3,-2,-19,7
-19,37,117,20,0,3,15,19
6,16,85,30,12,5,-11,-10
34,-13,-86,93,7,9,42,127
1,-17,48,61,4,-10,-33,45
-41,25,74,-128,-13,-3,-14,-128
5,0,31,0,-20,-7,0,11
-8,-67,-117,47,2,-4,3,-62
13,63,76,29,11,12,-3,-14
15,-23,-64,53,3,-1,9,75
-31,-55,-128,-42,-19,-16,1,-128
20,42,-6,-32,-5,-5,18,29
-14,-10,17,17,3,0,-32,127
-53,-19,32,-13,-8,-9,-27,-128
0,-5,-30,-14,-3,-1,11,16
-2,-21,44,7,6,0,-4,19
1,-51,-11,-15,-7,-5,2,15
11,31,51,10,8,7,6,25
17,35,-7,56,8,4,8,-1
6,13,-36,77,0,14,22,64
11,-12,9,-128,-5,-7,-12,88
4,-8,-15,-128,-24,-23,-46,-47
0,49,13,43,3,6,15,13
19,-24,-24,27,1,-3,-11,5
-6,-41,127,40,4,2,6,2
21,30,-36,28,10,3,20,10
-10,-40,-128,-33,-14,-7,-42,-24
75,-38,15,-20,-17,-2,35,63
-112,-6,-53,-15,-2,-7,19,-41
-1,1,39,6,2,1,10,-14
14,22,18,1,3,2,4,23
3,26,32,-2,3,-3,-6,-3
11,28,127,29,5,2,-2,-2
24,-7,-128,-7,-7,-3,7,82
-86,-18,-128,-32,-2,1,-46,-128
29,27,15,13,-1,5,2,5
-57,-14,-64,-31,-10,-11,11,-44
15,49,60,-4,3,0,3,29
13,-8,33,-22,1,8,23,110
1,-93,2,15,-1,-5,-5,65
2,31,15,41,6,3,30,11
30,7,17,46,10,3,-2,127
-13,16,-2,-44,-6,-5,-19,-10
6,-76,-66,-24,-10,-6,-6,-18
-31,-19,48,12,4,0,2,-3
-2,-1,-128,-33,-10,-7,5,22
24,19,127,20,7,1,2,17
-25,-31,-37,-28,-6,0,18,84
-13,14,94,48,8,6,-6,-128
60,49,10,61,16,5,-1,57
-54,-19,-102,15,-16,-15,-7,-3
-5,-11,122,-107,-20,-9,-1,0
18,-3,-47,-111,-8,1,13,60
29,36,-30,27,-4,-4,-8,52
27,-40,8,36,1,-6,-5,45
-35,-17,19,17,3,0,4,16
4,33,110,53,4,3,2,4
7,-34,-43,-6,9,5,3,-5
22,40,45,2,0,7,35,112
-19,-24,-76,14,-9,-10,-11,-61
3,-23,1,-46,-13,-10,9,-13
7,10,-66,13,9,2,-16,-49
-12,27,24,-11,-6,-2,-4,-43
6,24,68,-1,0,-4,-4,9
-13,-45,-18,37,0,-4,-5,-5
6,43,24,10,-2,6,4,2
12,48,127,-72,-4,1,5,-3
21,-59,-128,-63,-4,1,17,85
-19,-16,-128,-14,-9,-8,-9,-128
-7,44,47,21,4,-1,-10,-21
36,-9,62,33,1,-1,60,126
-53,-2,-36,7,-7,-9,-40,-12
8,-8,-14,36,1,0,0,50
-3,40,57,21,3,1,-1,-100
50,-17,33,-55,-5,0,23,44
2,15,34,45,3,1,7,98
-77,7,30,17,2,0,13,-42
-28,-34,-128,-54,-14,-17,-37,19
-3,2,79,24,7,0,-3,-59
18,24,65,0,5,0,-4,21
-17,-59,-128,-100,-34,-16,-8,-8
3,-13,50,61,-1,-6,-2,-2
4,-34,7,12,7,7,4,2
3,62,71,84,27,18,9,2
28,40,22,-85,-1,3,16,63
-37,-109,-55,-128,-36,-27,-38,-51
-17,-46,-27,50,11,-1,7,40
20,41,-4,27,7,11,9,8
-1,4,-34,-20,-15,-5,-18,-27
12,3,41,8,-17,-13,11,49
4,8,-26,-14,2,4,-18,-56
-1,71,-5,-9,-6,-6,-8,-24
11,46,-15,41,7,-1,4,16
-4,-60,-4,18,4,-3,24,11
-13,-77,-128,-48,-14,-7,-23,63
-13,21,-80,0,-6,-4,-13,-91
14,-4,-89,-21,-1,0,28,127
-50,14,108,-41,-3,-8,-30,-128
-5,-25,-115,-26,-4,-4,-8,27
-2,34,-8,-50,-11,-6,0,22
12,34,-29,38,5,-2,1,17
12,36,-44,62,33,8,5,16
3,-27,18,-98,-28,-2,1,10
-16,29,33,6,-28,-2,6,-10
-5,4,-81,56,2,-6,8,4
29,116,59,18,13,8,10,46
-14,-19,23,-4,5,-3,-21,-41
-37,-31,-128,29,-2,-12,-13,-16
8,69,15,10,4,4,8,-8
9,33,-114,-79,-3,14,7,1
-32,-51,52,-24,-1,-5,-3,6
-3,43,90,67,1,-11,-9,-12
-4,-12,-106,-25,-3,-2,0,7
-4,7,87,37,1,0,-9,-58
-1,22,20,21,-2,-2,7,66
20,6,11,-59,-10,7,17,12
57,113,2,1,6,12,12,127
-46,-45,-128,-128,-11,-3,-9,-24
15,-78,98,22,-10,-13,-12,29
-58,-79,8,48,-23,-25,-12,52
-7,-9,-8,47,-5,-12,-36,-128
-17,26,14,-5,7,7,-2,-46
58,44,13,34,19,13,34,107
-26,9,31,5,10,-2,-43,-50
-3,25,71,-14,-5,5,1,-18
-2,-11,-26,-4,-8,-6,1,5
-1,-14,-47,-9,-3,-5,9,18
5,14,51,115,14,2,-15,-23
10,43,50,-119,7,7,8,-6
3,-44,-53,8,-10,-1,8,17
3,-45,-40,-4,-17,-12,18,120
-28,-53,18,16,-1,-2,-25,-128
-15,-6,-6,32,12,-5,-25,-21
8,25,36,9,-1,1,-1,-76
-29,8,-69,5,2,-5,-4,3
0,-14,-27,-15,-3,-3,3,17
-8,-9,35,22,-3,5,6,9
-5,48,35,1,-2,2,-5,-10
39,-14,51,77,30,17,26,22
95,-31,-92,-8,-9,9,10,49
-59,-31,-49,-115,-26,-21,-21,-53
0,-11,-126,-9,-13,-9,-11,-8
19,7,-36,34,5,0,3,7
2,-7,-5,-38,-7,-4,-1,-5
14,20,49,32,13,6,5,3
23,19,17,45,10,6,7,79
-36,18,-29,-2,-1,0,-1,-19
-1,5,64,17,6,7,2,32
5,16,-42,5,1,0,-3,-98
-3,17,-2,15,5,-3,0,63
-5,-11,-22,-27,-11,-4,4,6
-13,-17,-83,-20,-7,-6,-9,-5
-4,-2,5,19,4,2,2,1
-2,-3,-62,-1,5,5,0,-1
-2,-2,21,-43,-10,1,3,-3
-4,10,55,29,5,5,3,-6
0,-7,-22,-3,-2,-2,3,43
-6,5,-13,5,-4,-2,-2,-70
0,4,53,4,3,-2,-10,-1
10,19,123,18,2,7,-3,5
-9,-32,-128,-104,-22,-10,-6,-1
-15,-29,3,-13,-15,-17,-13,-11
-2,-15,5,11,10,0,6,33
4,12,30,4,-4,-5,8,49
8,28,25,15,9,14,-2,-4
-19,-21,-37,-21,-8,-6,-7,46
-3,7,24,12,2,-4,-17,-11
21,19,23,16,3,3,12,68
-8,-6,18,-14,-4,-5,-6,-100
1,14,14,-15,-7,0,16,-1
-34,-71,-73,-13,-4,-7,-36,-41
-2,-9,4,10,4,-6,-1,25
10,43,61,18,-5,-1,-4,-66
7,-6,16,5,2,4,13,38
-24,-12,-12,-11,8,0,-1,3
10,53,15,24,7,-1,4,10
-4,-6,-64,-30,-8,2,-6,-14
10,33,25,-1,-2,1,-4,23
19,53,111,63,11,7,10,-17
-23,-55,-6,-27,-13,-12,-11,-22
-5,6,-34,-25,3,4,17,54
5,4,-25,50,2,-1,-12,-80
-14,0,4,-36,4,1,-10,2
8,17,-11,12,0,6,6,16
-4,19,1,-6,-1,1,-4,-2
14,6,63,47,8,4,2,28
2,-25,-95,-17,-11,-10,-5,-13
-24,33,-17,36,4,-4,-6,6
3,-6,-29,-27,-7,0,3,10
-4,-17,-92,-128,-15,-12,3,9
12,8,37,65,-7,9,24,-9
6,-26,2,19,-5,-13,-6,-34
-38,12,15,36,10,2,-12,27
-1,29,38,1,8,5,-12,-57
20,19,112,22,16,8,-3,11
-66,-38,-128,-74,-33,-19,-7,-19
-18,-128,-81,-47,-20,-13,-6,21
16,37,46,127,24,7,11,10
8,15,64,16,8,3,1,2
6,22,8,-128,-33,-7,-2,17
14,15,10,1,-2,8,-11,-36
-7,64,-30,63,4,-14,13,47
25,1,10,18,-2,-17,-11,-73
-15,-38,-24,-47,-7,-3,13,50
3,3,-7,-6,9,1,-8,-4
-6,-23,-49,12,2,2,-7,-4
3,-8,-39,-31,1,7,2,17
27,36,80,127,16,14,30,116
47,26,44,28,2,-5,-31,-128
14,-10,-3,-128,-18,-1,5,53
-54,-48,-41,-46,-8,-1,14,16
-1,9,42,30,-1,-1,-4,6
8,9,-74,-9,9,5,0,9
11,-26,-81,11,17,9,5,8
-19,-30,-43,-65,-12,-11,-11,-7
40,19,70,109,-13,-14,-4,-15
-70,3,-20,-45,-3,7,8,5
10,37,11,23,-5,-2,0,-4
-6,-19,-10,-88,-18,-10,-8,-6
0,20,-2,-88,-4,4,1,-3
9,4,14,28,18,6,2,-5
4,5,28,54,-1,3,3,-2
25,19,-48,17,4,1,1,0
-4,-26,-99,-11,-3,2,36,47
-17,-17,26,16,-9,-13,-31,-95
-28,-54,13,10,-4,-9,-11,-13
-3,5,-9,-6,-1,-7,5,3
7,7,9,10,1,1,2,3
2,7,2,20,11,8,6,9
65,61,2,-3,5,9,-23,6
-37,-82,-14,-51,-5,5,-65,-31
-45,6,-6,-96,-27,-9,105,-81
17,-16,-115,-3,-16,-32,-43,-8
1,26,3,17,2,0,-9,7
-29,-7,-5,6,-3,3,-10,7
16,-1,26,10,1,-1,-6,12
4,-12,1,0,7,5,-6,-1
16,-40,-28,12,-1,2,1,16
2,27,25,-19,1,0,-7,-9
1,22,-107,-45,-13,-5,-1,16
6,7,37,-13,-7,-10,-2,2
-8,5,17,15,-9,-10,-8,-5
-5,-1,-5,15,16,-1,4,0
2,10,-3,-47,7,16,3,-5
-3,2,9,21,3,7,2,-4
-7,-5,58,13,3,-4,-2,-7
16,18,-38,-29,16,7,15,22
-8,-25,-55,-5,-7,-14,-14,-2
-15,-13,31,5,-15,-3,-6,-19
-10,-22,-39,3,-14,-8,-12,11
-13,0,25,-2,-3,-5,-11,-14
9,10,13,11,7,0,3,18
1,37,44,19,1,-5,-9,0
3,-16,69,13,0,1,2,-3
-8,-10,-128,-79,-8,1,-2,-15
0,-23,11,2,-11,-13,-9,29
-13,-8,24,47,-6,-17,-30,-15
8,34,27,-11,8,3,4,12
-13,-17,-11,23,-2,-1,-3,-10
7,30,61,-82,-8,2,4,-19
20,18,-24,-7,4,7,8,14
0,14,34,6,-3,2,2,7
-44,1,15,0,-3,-4,-8,-61
6,19,-128,-56,4,5,-4,-7
5,-38,82,68,-1,-5,-1,23
7,26,16,28,0,-5,-1,5
-5,-92,-16,-54,-10,-5,0,-4
-2,2,1,-1,3,1,1,2
13,21,-3,5,6,3,3,5
-16,-10,12,-7,-8,-10,-15,-28
11,12,-35,8,12,10,12,22
-26,-44,50,-98,-37,-21,-10,-22
1,0,3,54,0,-5,-10,-8
6,11,30,13,2,0,-6,-9
-3,5,17,17,0,-3,-2,-12
4,1,-7,-20,-3,1,5,6
1,0,-13,17,2,1,-4,-9
8,7,29,5,9,10,11,-47
16,7,27,-2,2,3,-11,-27
-24,14,-46,-24,-2,-2,2,-32
-10,-29,-36,-24,-4,-6,4,18
-9,1,28,-10,-5,-1,-8,-11
-2,-13,0,22,-2,-4,2,-16
-1,-37,-74,1,-8,-14,-16,3
8,-10,39,4,1,4,2,5
10,24,-14,-21,11,5,-1,0
-5,28,28,27,2,1,-7,-4
11,1,73,65,5,1,3,11
13,13,68,9,-7,-9,-7,10
-67,-25,45,-11,-6,-4,6,-90
-1,1,-66,2,4,1,0,127
-7,0,-52,-10,0,2,-1,-12
4,-16,-26,-22,-11,-19,-27,-8
-1,5,-8,1,2,5,1,3
9,68,67,13,7,7,3,1
5,45,125,11,6,6,2,-1
21,-20,-128,12,-1,-3,-4,32
-25,-45,-92,-128,-25,-17,-5,22
-11,-28,127,117,-4,-12,-13,-18
7,4,14,18,3,-4,-1,10
16,21,-19,15,9,3,6,15
-6,-17,-25,-31,-13,-11,-3,-4
5,15,-65,-7,10,5,-4,-3
-13,-10,29,71,5,0,-6,-9
9,0,-22,-128,-12,8,3,-4
-5,0,-17,2,-16,-7,-3,-6
-1,22,40,28,8,-1,-1,-1
7,6,39,12,-3,-2,3,11
23,-18,-35,13,-1,0,-1,-13
29,1,-19,1,5,3,-1,8
-45,60,69,10,3,2,4,-2
17,43,-32,-4,4,2,7,22
0,-110,-128,-67,-2,-1,0,5
-44,-24,-92,-69,-17,-11,0,16
-24,11,127,127,13,-6,-17,51
54,46,127,39,5,0,3,-32
-41,23,-55,10,4,3,-6,-59
25,-21,-109,-27,0,-1,-17,-117
16,31,4,-61,-7,-5,4,34
1,4,3,6,-4,1,-9,-8
-8,-30,-118,3,-9,-6,-3,3
52,11,-77,-60,3,15,17,37
-31,0,127,49,7,0,-7,-1
-22,0,88,86,3,-4,2,35
-25,-10,-11,21,-10,-10,-23,-115
36,25,33,-14,4,14,31,-46
1,37,-29,-15,-10,-8,-25,127
-24,68,31,-21,-1,-2,-19,-20
4,-83,-98,-44,-6,-5,-7,18
-2,-116,-52,-46,-5,2,3,13
5,3,15,-26,2,6,8,6
-7,-13,33,-128,-6,-7,-2,-5
30,53,127,127,10,-10,0,17
27,34,51,31,11,3,-10,-65
-47,7,-85,-100,-9,5,24,50
11,-2,-54,-54,-16,-7,-25,-65
0,-8,-69,-8,-3,-7,-9,-1
60,15,40,18,25,17,15,24
-38,-7,27,39,-1,-4,5,52
-45,-35,-51,-38,-21,-9,-12,-39
1,8,91,35,6,9,29,127
107,4,-26,35,-4,-2,20,120
-115,-47,55,-39,-9,-14,-21,-117
-7,6,2,114,2,-4,-41,-62
7,14,7,1,6,7,15,23
6,-7,-44,-29,-11,-6,-14,8
10,-24,-16,-10,-2,-7,-1,10
15,-2,-19,-13,13,3,8,13
11,16,-18,-36,-4,6,2,9
-23,62,21,-17,-6,3,3,3
-32,-115,-18,16,-11,-11,-5,-10
-8,-61,29,36,-2,-6,-8,-11
-3,21,10,6,0,-7,-7,-26
6,8,-8,20,1,4,2,30
7,10,-13,-12,-4,4,16,32
-17,15,-10,-6,14,1,-18,25
17,17,-121,-72,-5,3,3,26
-14,52,64,-49,-12,-11,-6,-87
-11,18,127,127,8,-12,-6,-1
2,-13,41,86,4,-2,-1,3
-8,-3,-100,-33,-11,-8,-3,8
-13,-14,-89,6,15,3,-1,-2
6,11,3,-32,5,8,8,10
6,-25,-6,-36,-8,4,7,22
5,2,4,-10,1,-3,-2,-40
9,5,12,0,-1,-2,-2,4
-4,-6,-25,-3,-2,-3,3,20
-23,-42,10,-23,2,-3,-8,23
2,-4,-20,-8,-2,5,11,64
-5,-5,0,-5,-3,-6,-14,7
3,15,48,58,1,-7,-17,-66
18,2,-11,-34,-14,-6,0,61
-30,22,-70,-29,1,0,-10,-104
-11,12,71,6,4,-2,-5,4
-1,-58,78,57,-4,-8,32,89
63,20,-42,-14,5,10,-33,-98
-102,42,127,24,-9,-1,-3,5
-50,-114,-94,-44,-10,-7,-22,-128
10,-11,-28,-11,-5,-3,4,16
24,30,60,20,4,3,1,18
-4,41,-40,-48,-8,-6,-1,4
4,9,-60,-28,0,2,1,5
-5,28,24,-19,-6,1,-4,-9
33,-14,54,2,-8,-8,10,53
-31,4,39,63,7,-4,-27,-41
-26,-31,-53,-25,-2,-2,-7,-30
19,15,5,-12,2,2,2,-1
0,-67,15,0,-5,-7,8,26
2,7,-58,-9,-5,-4,-4,61
-1,-12,15,-9,1,3,-1,-23
5,4,-33,-8,2,-1,-11,20
-3,39,8,3,3,-1,-2,11
-55,-72,43,7,6,1,1,-59
14,1,-4,21,-2,-11,-23,-26
-25,-23,6,-1,-2,-3,0,-1
15,2,41,43,4,1,0,1
11,1,6,1,-1,4,4,4
8,-7,-44,-32,-8,-1,2,7
-1,-44,-18,-24,-1,2,-2,-4
5,23,-5,-7,-4,4,-2,-11
20,11,-28,-13,3,5,6,0
3,10,61,7,-1,2,2,0
-38,-60,16,-6,-7,-10,-14,-8
6,8,-56,-1,0,-1,-9,-9
5,11,-16,21,5,4,4,-4
-8,-19,60,18,-9,-10,2,28
6,10,56,-7,-2,2,4,78
0,0,-6,15,-5,-4,-21,-32
-10,-3,-29,-8,-4,0,-14,6
-25,2,-26,-28,-8,-7,-2,7
7,3,-37,-39,-3,0,6,13
5,9,38,45,9,-2,-4,3
5,8,45,35,3,9,16,52
-6,14,28,-16,-11,-5,-25,-128
3,4,-27,-26,-8,0,10,-7
-1,-24,17,4,1,3,-8,-11
-2,4,11,-8,1,0,-2,12
-8,-73,-61,-13,-8,-6,-5,-11
12,25,-1,-5,1,-3,-4,3
-4,19,43,14,4,2,7,-6
-54,-12,4,-39,3,5,0,62
-32,-8,-64,-25,-12,-14,-13,-51
17,-14,-16,23,-5,-8,-12,-99
-22,6,10,-11,-3,-1,-2,7
-7,-6,-15,8,7,-2,-3,21
6,-99,48,-10,-4,0,10,66
8,22,-50,-2,0,3,-1,-26
13,19,46,9,-9,-4,-2,22
-30,-11,10,-12,0,-5,-2,0
-7,-14,-5,-8,-1,1,-3,-1
4,-2,9,15,1,-1,1,2
6,-4,-11,-41,-7,-4,-3,4
9,19,-69,-48,-4,3,2,4
-18,-64,37,68,7,-4,-8,-16
2,11,86,45,1,-5,14,36
5,-5,16,-2,-4,-1,-15,-60
-11,-20,-75,-2,1,-3,-1,-1
3,-3,19,-8,-6,0,0,-1
6,-1,33,-8,1,10,4,3
3,-3,-63,-25,-4,-1,5,-7
-3,6,29,15,-3,-1,21,127
-9,-4,2,25,-1,-8,-19,-31
-36,-3,-18,-25,-6,-4,-8,-81
-1,-5,-6,-18,-7,-6,6,30
-1,-10,0,23,13,-2,-6,14
12,18,14,-16,-4,2,5,46
8,-1,-40,-4,-9,-5,2,37
9,3,0,-18,-3,3,9,-107
-8,-15,38,22,2,-4,-5,-1
-20,-4,-14,-6,6,7,12,27
5,16,10,-1,-2,0,-2,7
3,4,-19,-22,-3,-3,-11,-15
1,15,21,24,-6,-7,-3,-1
-4,-25,-23,21,-3,-4,-5,-5
3,-1,-1,-29,-2,2,6,18
27,-4,-22,-13,-8,-4,-14,-73
-11,21,72,13,3,4,7,23
15,34,9,30,11,8,-5,-9
-24,-104,-128,-79,-14,-10,-9,18
-7,-2,31,15,-8,-9,-1,51
-7,14,42,2,5,1,16,-67
-7,-15,36,7,0,-5,-16,-14
15,21,9,13,-2,0,-3,-1
2,-23,-7,14,4,-4,-6,-28
-3,0,-12,-12,-15,-4,4,5
-2,2,-2,-27,19,12,5,3
8,19,3,4,4,1,6,21
1,-5,1,26,1,-4,-9,-25
7,-5,15,-6,-2,-1,-18,-48
9,7,-4,-8,1,3,3,43
-77,-10,-8,-9,-4,-3,-9,-36
-2,31,9,-3,-4,-4,6,35
-8,-11,-53,-23,-6,-9,-4,-26
1,-69,-35,2,-7,-5,-1,17
0,27,40,40,2,-3,-2,-30
5,17,-30,-6,-2,-3,5,113
2,12,53,-3,-5,-4,-8,-14
31,15,-26,-15,5,0,1,-5
-38,-13,11,-9,-10,-5,-21,-23
-14,17,-9,-14,-4,-2,0,-4
0,-13,62,29,1,-4,3,3
0,29,10,14,7,0,0,-3
-2,-11,-29,-11,2,-1,-2,16
2,-1,12,37,1,-1,-1,-6
2,2,42,-9,-2,-1,7,22
1,-24,-54,-1,4,-1,5,8
0,43,25,-16,-9,-7,-8,-7
-1,1,0,-23,-6,-2,-1,-2
7,15,10,3,8,2,-7,-6
4,4,32,15,-5,2,1,29
-2,-9,-27,-31,-3,7,3,-7
0,37,-20,1,1,0,3,20
10,21,29,40,9,1,7,7
-16,1,62,17,-2,-7,-21,-43
-29,-3,-16,-1,3,-1,-7,12
9,15,-27,-17,-4,-2,5,19
1,-101,-128,-38,-17,-12,-10,36
-11,1,10,-7,-1,1,-5,-22
28,20,50,21,2,-3,20,56
6,12,0,10,-3,-6,-4,7
-5,13,14,-1,5,8,-4,27
11,0,8,-9,-2,0,11,11
-2,2,9,6,5,-3,-34,3
2,10,-18,-15,0,2,-12,-49
31,0,-5,1,-6,-2,6,72
2,-11,5,3,1,-3,-12,-61
0,7,-17,-30,-7,-2,2,-6
5,13,47,58,1,-2,6,14
3,-36,12,18,8,-7,-13,43
-11,-36,-25,-26,-8,-3,-12,-54
4,1,-22,-64,-11,-1,7,15
-1,-7,2,12,-2,-4,-18,-5
1,1,-12,-3,-3,-3,-1,4
16,23,-2,40,12,4,1,-18
-43,29,119,19,6,2,1,-31
-6,-12,-91,-56,-13,-4,-1,1
-5,-38,31,-30,-4,-2,0,0
-7,59,-68,89,9,-2,-6,-15
6,12,11,5,3,6,7,4
1,9,3,-2,2,1,-1,5
2,-1,-10,-17,-13,-8,-7,-4
9,2,-4,-14,-6,0,-2,0
-12,1,-17,-63,-2,-1,1,1
-8,-15,-33,-6,-9,-5,-15,5
-16,-4,60,21,-4,-3,-11,-76
-16,1,87,82,7,-2,3,-24
14,19,-10,8,7,8,31,-126
3,6,-46,-11,3,0,-8,28
3,-43,-36,-33,-9,-3,-8,22
-10,-22,-16,-19,-1,-2,-3,-35
-21,13,0,-11,-5,-2,5,7
0,-41,-41,-21,-4,-2,5,24
1,12,10,18,1,3,2,10
41,42,127,41,-2,-3,-17,-124
-45,-23,-127,-29,-5,-4,-13,-35
-26,-22,-22,0,-8,-9,-10,-5
-7,-5,15,-10,2,1,3,0
13,17,22,29,4,4,7,7
2,-15,1,16,11,-3,-1,4
-1,-5,-14,-2,-9,-7,-2,0
2,40,14,-49,-9,1,1,-6
-7,-74,-61,-14,3,3,2,2
-8,-13,-34,-7,10,2,0,8
5,0,-34,-43,-8,-3,-7,10
-12,-3,19,16,1,0,4,-13
3,3,55,42,-1,-3,-10,10
0,4,-13,-11,-3,-3,-2,-6
0,1,21,2,2,-4,8,22
-1,0,-13,4,-7,-1,-1,1
0,8,-45,-60,3,8,-3,4
-1,11,84,-6,-3,-2,-7,-13
16,-93,55,47,10,5,48,45
-6,-11,-128,-42,-3,-6,-57,-99
-111,-4,127,84,0,-14,-12,-98
7,0,-22,36,-3,-1,12,49
33,6,-14,-31,1,-5,-16,25
35,32,-53,-50,-10,2,0,29
-15,-28,-14,-42,-4,-2,-7,39
0,-2,5,23,3,-3,0,4
10,13,-2,9,0,-1,3,4
-32,-43,-2,17,11,0,0,0
3,13,-5,-6,-8,-2,0,-2
10,12,5,-46,-18,-1,-1,13
-7,1,0,4,5,-1,-3,-10
4,-6,-12,5,4,1,-1,23
8,10,-25,-6,-3,1,2,11
16,17,-101,-59,2,6,-8,47
-41,-4,117,9,-1,-7,-12,-48
-23,2,74,67,-9,-14,3,-18
-1,-2,-79,33,-1,-1,-5,45
-5,-4,51,-3,-8,-10,-15,-27
8,7,-128,-53,2,5,2,0
8,-13,-29,-63,2,11,11,8
35,19,127,42,1,-5,10,-27
-4,24,-5,57,-4,-8,-11,-111
-109,-37,-25,-24,-11,-8,-15,-21
-2,-1,-30,5,4,3,5,9
9,3,22,-14,-1,0,1,5
8,-1,-3,-16,2,5,0,5
13,5,-33,13,10,3,4,6
-7,0,-39,-38,-8,0,7,15
-14,-36,-65,-52,-8,-5,-43,-128
-1,13,70,9,-3,-6,0,38
-6,16,66,60,-3,-4,9,-15
-2,-2,-36,-2,-5,-9,-23,3
1,-53,-29,-22,-6,-3,-4,8
-3,-13,-17,-10,3,2,0,1
3,10,-4,-21,-5,-1,-2,-3
-13,-24,-34,-15,-1,0,-2,-6
-4,-5,10,5,-2,-3,0,-10
0,2,29,-3,-1,-1,3,0
3,8,47,-2,-4,-1,1,-6
-2,-3,-10,17,-3,-5,-7,-19
-11,-29,-116,-5,1,-1,-5,-9
-2,4,54,23,-1,-1,-2,-7
34,5,38,-19,-4,-2,12,69
-50,0,3,5,2,-6,-25,-90
14,-6,-14,1,0,4,17,37
3,5,127,48,-3,-3,5,-38
-42,-15,4,37,-5,-11,-18,-124
38,0,-75,-45,1,6,1,17
-44,-2,-9,-58,-3,-1,6,16
34,5,4,-16,-8,-2,2,0
-1,3,-14,0,-3,1,-1,29
13,-7,-39,8,-11,-5,-5,-23
1,3,85,80,5,-1,1,15
8,13,10,0,10,1,3,5
16,21,-19,-23,2,3,3,14
-21,-47,-26,-10,-5,-1,-4,-26
3,8,-14,-42,-10,-1,-1,7
1,-5,-16,-23,0,2,-2,-2
2,-2,-7,13,0,-1,2,9
-9,-12,26,-4,2,-4,-12,-59
-1,7,-17,7,-3,-3,2,27
12,3,-2,7,4,1,3,83
-21,-15,52,-69,-11,-3,-13,-112
-17,1,41,95,0,-6,1,-59
16,-1,-28,13,-4,-9,8,19
-20,-25,-54,-60,-3,-1,-20,-2
16,18,-32,-21,3,6,11,24
1,6,110,90,5,-1,-5,-4
8,31,-55,-12,-4,-2,3,-2
-24,2,59,-11,-7,-5,-1,-8
-5,-5,56,10,3,-3,0,-5
-1,7,-15,20,6,1,1,1
-5,-11,-73,-32,-10,-4,1,-8
-4,-20,-4,-18,-6,-2,-3,-3
-3,-20,-39,-27,-4,-1,1,-7
0,3,6,10,-1,-3,-3,-8
10,6,2,1,5,-1,1,21
8,-12,-27,-34,-13,-1,-1,0
-3,3,45,12,1,-3,-14,-17
-10,-7,-80,-43,-2,1,1,3
-4,4,95,28,-4,-5,-9,-63
-8,12,102,91,6,1,19,57
2,-2,-54,4,-1,-4,-20,4
-5,-3,-62,-42,-11,-6,-2,0
7,-23,-10,-24,-2,-2,3,8
-1,2,-19,-10,-9,-5,-1,6
2,30,6,-1,0,-1,2,4
-9,15,-9,-15,0,6,7,6
9,-1,-37,-39,-1,6,2,16
-9,6,74,44,8,-3,6,-89
-14,-12,-92,20,-2,-2,-9,-6
-6,15,0,-10,-10,-7,-3,-8
5,18,40,5,10,3,-1,-1
-1,-27,-68,12,3,2,-2,2
5,-25,-16,-56,2,3,2,7
0,21,-59,16,-10,-7,0,2
-5,-13,13,-20,-14,-5,-1,-40
-11,24,12,13,-3,-7,5,52
-4,-25,18,23,1,-7,2,-36
18,36,1,-5,3,4,5,17
-10,11,-27,-17,5,4,2,2
6,-14,-34,-29,-5,-3,-1,3
8,44,9,19,-2,0,2,3
-10,-25,31,-42,-10,-9,-3,17
-13,-18,-14,35,-2,-5,-11,-40
3,-11,-43,-17,-3,-3,0,0
4,13,3,-10,-4,1,0,2
-4,-16,-4,7,7,5,0,1
-4,15,7,2,9,0,-1,1
-5,-15,42,21,3,-4,-5,-4
3,10,5,-44,-11,-1,-1,8
-2,24,-5,15,-3,0,3,-14
-3,4,-46,-22,5,-6,-3,-26
-2,5,48,10,-9,-6,-16,-16
-6,-17,18,24,-5,-6,-3,5
3,4,-36,-38,-2,-2,1,-14
0,-8,-7,18,1,-5,-19,20
-14,-19,-24,4,1,2,-11,-66
7,12,18,-24,-1,3,0,-4
-2,-25,-128,-71,-19,-7,-8,-13
-16,-40,7,31,-3,-10,-6,-2
1,-10,36,13,4,-2,-5,0
15,32,54,39,-5,-2,2,10
-28,20,-16,-28,3,6,2,1
-22,-38,-13,-20,-2,0,0,-1
11,4,-2,17,-1,2,4,-2
6,1,-6,14,2,1,1,2
0,10,-14,-15,-5,-4,-5,1
7,-8,26,22,15,3,3,1
0,-6,-28,-15,-10,-6,-6,-12
5,7,0,12,-7,0,3,6
-1,-6,10,18,1,-4,-1,43
-17,20,18,-40,-2,2,-15,-128
8,-8,62,-7,-7,-3,-2,33
-6,13,-10,37,0,-1,-8,-88
-18,-33,-94,10,-5,-5,-7,42
-10,-22,18,-2,4,0,1,-111
-11,-64,-52,-84,-11,-2,0,5
1,56,112,42,6,2,-14,-14
8,34,18,33,-3,0,2,19
-8,2,-54,-58,-3,-4,0,0
8,36,42,11,-8,-3,2,3
9,0,35,8,4,2,5,22
-17,-52,-102,-28,-12,-9,-11,-114
4,5,14,18,10,5,3,2
-9,-15,-18,-23,-4,3,2,12
-2,8,22,0,-6,0,-3,18
35,6,-18,7,2,5,26,60
-25,15,36,-24,-2,-2,-14,-45
-14,-13,-5,35,-3,-12,-7,18
-2,-8,25,33,-7,-9,-2,10
12,3,-25,-56,-6,4,12,15
1,-18,-33,-13,4,5,0,-11
-9,26,80,23,8,0,-3,-7
-2,-3,-49,-20,-4,1,1,-7
-8,-12,-50,-40,-5,-4,-6,-5
1,27,96,73,5,-3,0,-5
0,-4,-30,-11,-3,-3,-2,-4
0,1,34,-9,-7,-4,-2,-2
0,-5,-92,-25,1,3,0,-1
2,-8,-35,-16,5,9,4,-2
1,6,74,20,14,3,1,15
10,1,51,56,-5,-6,-2,18
-20,-6,-14,11,0,0,-13,-128
-6,-2,-120,-54,-5,-2,-15,12
6,32,36,-10,-1,2,1,-8
24,9,-41,-43,-2,1,11,64
2,-14,-60,-14,-4,-3,-7,-1
-31,-30,84,55,-2,-8,-10,-8
1,33,91,44,7,3,10,33
19,13,28,-1,-10,-6,-5,10
-13,2,-41,-26,-1,-1,2,1
-9,-4,-59,-10,-4,-1,2,-36
-4,-12,-16,6,2,0,2,-7
-9,9,1,-12,-6,-4,-5,-5
-3,-7,-5,13,1,0,0,7
6,-4,-2,-3,9,8,2,-2
1,33,24,-6,-4,-1,-1,-2
-4,-1,9,-16,-5,1,-1,-3
-2,-15,-18,1,-2,-1,6,8
-8,-10,46,10,-10,-6,-1,14
-24,-24,-87,9,-8,-9,-5,-8
12,13,43,26,2,-3,-19,-39
1,-1,-7,-12,-7,-3,1,2
-2,2,-8,-38,-8,-5,-2,5
12,13,-31,-31,-4,-6,3,33
3,15,-77,-12,0,-2,6,11
-8,-16,121,59,14,4,-13,-3
-19,-42,-105,-30,-2,-1,-7,-9
-4,-40,35,30,-3,-5,-1,14
3,5,-10,-18,-4,1,13,-1
-3,7,-23,-2,-4,-1,-25,-21
26,15,-26,-55,4,5,-2,6
-22,1,17,34,-7,-10,-8,-17
-3,10,33,48,4,-1,0,-22
4,-6,-33,12,5,6,5,15
6,3,-42,-42,-8,-1,4,13
10,0,10,-29,-12,-4,-8,-37
-9,7,3,-12,-2,1,1,-2
-4,16,25,20,5,0,2,9
1,-2,27,7,-4,-9,-10,-19
-4,-11,-31,-28,-9,5,1,4
10,-3,33,-6,2,3,10,68
-8,-7,-34,20,-6,-8,-13,-10
3,0,28,11,4,1,-4,53
6,1,30,-1,5,6,5,-27
-20,17,-51,-20,0,3,-3,32
-16,127,-41,-9,0,5,12,5
-7,28,28,-44,-9,-4,-5,2
-4,-109,48,67,6,-6,-6,3
2,-7,53,21,-2,-5,2,19
-10,6,-7,19,0,-3,-24,-1
7,27,-4,-22,-1,1,1,-2
-5,-18,-39,-75,-20,-5,1,-3
1,-14,60,34,2,-6,-4,-38
3,15,1,-17,-5,1,-3,3
5,-1,15,-8,1,2,0,3
-1,7,41,73,21,6,2,0
7,18,68,23,-3,3,14,17
36,-9,-24,-4,6,5,-4,27
-59,-20,-63,-25,-1,2,-4,-22
0,-9,-30,-60,-13,-4,-4,1
9,-7,-1,6,3,0,2,4
4,3,29,-15,-9,-6,-4,8
-25,6,90,93,10,-3,-1,-6
3,3,3,0,0,0,1,-3
17,5,-49,-31,-1,5,11,77
-20,-22,37,-9,-7,-2,4,-3
-3,46,40,21,1,0,-14,-97
1,-1,-38,-10,4,3,-8,-17
0,-6,-63,-74,-10,3,2,42
-13,-26,127,-9,-5,-9,-11,-26
-9,-11,127,109,-3,-14,-6,-1
1,3,-35,7,-8,1,4,1
-11,-7,-28,-37,-5,-4,-3,24
1,2,-58,-19,2,0,-1,5
11,8,-14,-12,1,1,-2,-1
8,6,-7,-14,8,10,3,-14
3,13,-41,-17,-3,2,1,4
1,83,-39,-46,-11,-6,-2,18
-15,-5,67,63,-4,-10,2,-57
-5,16,87,52,4,-2,-3,15
13,-19,-35,-19,-5,1,5,32
-15,18,3,-16,0,1,7,9
-30,1,-26,9,-2,-3,-14,-3
3,-8,-20,-31,-1,-3,-3,-13
33,-19,-22,-21,-6,-2,1,9
-55,-24,69,74,1,-5,-5,-23
20,22,13,-2,8,5,9,-9
2,1,-36,-49,-11,-4,-3,0
8,-19,-16,-7,3,2,3,-21
-4,17,100,63,6,-7,-6,-20
-4,5,7,53,7,-2,-1,-7
4,13,-34,-66,-7,5,-3,7
-1,20,60,53,-4,-1,-5,-3
0,-14,27,-41,-4,0,2,2
-4,-3,-44,-12,-9,-7,-11,-3
-8,6,20,24,2,1,-5,7
-14,40,-14,-9,-2,-4,19,28
-16,1,22,-4,-4,-6,-12,-43
6,-5,16,-31,2,0,3,6
-6,-32,-85,-13,-9,-8,-2,-6
-1,-9,127,32,-5,-8,-3,14
-11,-9,-25,21,2,0,-1,-47
1,3,2,13,-1,1,-1,-3
14,25,6,-8,-1,5,4,9
-8,-44,-77,-61,-6,1,-3,14
0,3,96,29,0,-1,-3,-1
-6,0,-37,27,-7,-7,-7,-6
-2,-4,-13,12,9,4,-2,-2
2,5,31,31,5,3,-1,0
-1,-28,-15,-24,-12,-5,-2,-96
-1,-1,-91,-17,-4,-7,-1,-10
-7,-56,-71,-13,-6,-9,-8,-2
7,41,0,-38,-13,2,1,1
-2,-3,-26,-24,-5,1,0,-5
-13,-34,41,31,5,-2,-5,-6
10,28,-91,-69,-6,4,3,9
-12,-47,127,87,-6,-14,-11,-24
-12,-3,-14,104,9,1,0,19
-9,6,-26,-14,-3,-6,-1,-56
9,4,-24,-23,-2,0,-7,-7
7,-6,-78,-61,-7,-4,-5,-1
-3,-2,-78,-47,-16,-4,-4,-3
7,28,65,-4,8,5,5,7
9,-14,0,40,12,3,3,26
-36,-26,55,22,-17,-15,-17,-68
19,11,-29,-2,1,4,5,15
5,18,2,-3,-2,-4,-14,-6
3,-12,-29,-32,-1,4,4,8
4,2,2,-22,0,0,-5,0
2,28,82,28,-4,-7,-3,2
-1,-15,-10,28,2,0,6,7
-7,-4,-36,8,-7,-5,-7,0
1,8,56,31,5,8,6,-12
-6,-5,-77,-47,0,-4,-11,8
-7,0,50,-32,-15,-7,-5,-5
-1,15,-6,2,-5,-4,-2,-5
-14,-63,-19,-7,1,2,-2,-10
-7,-4,110,34,-2,-7,-10,-15
-1,9,38,5,-10,-8,-9,13
7,-13,-107,-16,-3,0,2,7
-7,-32,-95,-97,-14,-1,-4,-6
-27,-2,83,82,-4,-16,-17,-12
10,23,5,26,-8,-1,1,27
0,-21,1,-41,13,9,3,-1
11,41,30,22,5,2,-1,4
-2,2,3,2,-7,-7,-4,1
6,6,-48,-53,-6,0,4,4
5,-8,36,9,3,0,-2,-4
-5,0,17,94,1,-7,6,22
-5,-2,-49,-74,-2,-4,-12,-32
3,-6,-18,-15,-6,5,-1,2
1,0,-3,16,-2,-5,-8,0
0,-1,-46,0,10,3,5,4
0,-2,45,-14,0,1,0,1
-10,-30,-20,45,-13,-7,-4,-24
0,-7,8,-22,-7,-3,1,80
-9,7,18,25,6,3,5,-35
-3,40,11,-16,-2,-5,2,7
14,25,-75,-22,9,4,3,5
-5,-66,-50,-63,-9,-2,-2,-8
-44,0,15,57,-15,-18,-11,-15
1,-15,-12,-14,7,4,-1,3
-7,17,94,56,3,-7,0,-4
3,0,-9,-21,-1,0,7,-2
5,23,-26,-5,4,1,7,-20
5,-1,-14,-24,-7,-5,-11,25
8,11,1,-14,2,4,4,7
-3,-16,22,32,-5,-4,-3,-6
-4,8,-38,1,-4,0,2,-10
5,16,-19,-14,-7,-7,0,-4
-8,43,1,17,0,-3,-7,-11
-12,15,-9,-59,-8,-1,-1,0
-4,-50,46,-8,-5,-6,-6,-13
6,11,84,79,5,-2,3,19
-9,4,-34,-15,4,3,-16,-72
-3,14,101,38,-1,-5,4,8
3,28,-24,0,2,6,-5,3
-11,-72,-101,-77,-7,-6,-8,-15
23,28,46,8,-7,-1,-1,63
-14,-24,30,0,-10,-10,-5,-78
4,-22,-49,3,6,3,-1,42
9,9,-2,-2,4,0,4,-6
6,13,-13,18,11,2,7,21
-1,-21,-67,-38,-15,-4,-12,-4
-6,1,99,18,2,-1,-1,-5
-8,-7,54,37,0,-6,-1,1
-5,17,30,21,-11,-10,-9,-6
0,-2,-24,-10,-5,-2,-4,-13
-1,-10,-71,-2,4,4,6,7
4,22,-22,-13,2,1,-13,-10
6,12,20,-24,4,2,-2,4
-1,20,77,18,-8,-3,0,-14
0,-6,-23,-26,-2,-1,6,3
-3,-6,-26,7,-2,-5,-2,-6
-6,6,15,-4,-2,-4,-3,-5
1,16,75,19,-4,2,-2,0
-5,0,-128,-26,-1,0,5,3
-4,-22,-63,-23,2,0,-2,-20
9,-56,-31,-37,-2,2,5,-4
-11,-38,67,46,-1,-4,-2,2
0,-20,-18,7,3,1,1,-5
11,-7,-66,-47,2,4,2,2
-19,31,84,25,1,0,-4,-8
-14,17,17,-6,0,-5,-4,-13
4,-47,-128,-24,2,2,9,14
-4,1,127,24,-1,-12,-13,-11
2,24,31,-8,-4,-2,-4,-1
4,5,65,44,-2,-3,5,28
-5,7,-2,-11,-2,0,-5,-82
-5,-3,-48,-65,-2,5,5,-15
8,5,-13,6,-1,-1,-2,20
-4,15,34,-9,-18,-7,-4,-4
-14,-45,-87,-12,0,-6,-13,-10
7,12,19,8,12,5,2,2
-3,-11,12,-35,-8,0,1,-4
4,8,-6,17,6,4,4,1
-3,-22,-31,-60,-1,-1,-1,0
-6,29,71,85,3,-5,5,-9
-12,30,-14,58,1,-6,-15,-13
-13,-91,-25,-15,1,0,-16,-23
10,12,5,-4,4,6,5,9
-1,3,-34,-17,-5,-3,-1,3
6,9,-11,-22,3,6,9,1
-8,5,6,-7,3,-2,-5,1
-12,-10,-36,-1,1,-3,-1,46
26,-5,-53,-37,2,0,-2,-28
-10,16,46,-6,-4,-7,-11,-9
-19,-15,85,104,1,-11,0,-6
4,3,40,28,5,-2,-3,0
8,25,-72,-39,-2,2,4,5
3,0,-33,-13,3,2,-1,5
5,11,20,1,-3,3,-3,4
8,5,22,-7,2,4,2,4
-17,-41,-128,-70,-17,-11,-12,-21
-11,-73,-108,-8,-4,-4,-5,-6
2,41,22,-5,4,5,8,6
-15,30,127,79,4,-5,-5,-22
2,23,-9,10,-1,-1,-13,-10
14,7,-43,10,1,7,4,5
-8,18,-52,42,-8,-11,-6,-7
-2,-41,42,-38,0,-5,-6,2
7,0,14,0,-3,-3,-1,-1
10,-1,-36,-42,-11,1,11,1
-15,0,11,23,10,-7,-9,-18
12,16,23,27,1,0,7,-3
3,-13,-50,-73,-11,2,-3,1
6,5,-14,-16,-10,-5,1,-1
9,18,28,2,8,3,2,1
14,22,56,42,-1,-5,-3,-1
-23,-20,-36,10,-5,-7,-9,-18
19,-19,-4,1,3,2,14,84
-8,17,-17,-14,-6,0,-6,-30
-14,-34,-44,-13,-6,-8,-7,11
6,-11,-63,-96,-1,1,3,3
-1,7,95,76,-9,-5,-4,-6
1,8,-37,25,-1,-7,15,74
-5,15,108,27,10,1,-27,-58
-3,25,-64,-21,-9,-3,-6,-13
10,7,-60,-10,-5,-3,-4,13
5,16,-20,-14,-2,-1,1,8
-1,3,-44,-65,21,11,5,0
8,-10,3,34,-9,-2,-7,4
-14,-20,-71,-92,-14,-10,-6,-3
-12,-8,38,7,-10,-5,-8,-9
1,20,74,98,6,-2,-1,2
-7,3,-5,22,8,3,1,-2
-12,-58,-128,-69,-7,-3,-5,-13
-1,5,13,-16,0,5,8,2
-40,-22,30,1,0,-4,-8,-23
14,55,38,-7,-5,-1,4,53
-12,14,46,23,10,2,-16,-128
5,-26,-109,-42,0,4,4,5
-2,-5,-61,-69,-6,1,3,5
-1,5,127,48,6,-5,-1,-9
8,7,59,63,-3,-9,-4,1
-27,-15,-32,14,0,1,13,15
-11,20,-26,-15,-5,-5,-3,-21
-6,-32,-42,-84,-4,-1,-3,2
7,4,-8,-9,-7,-1,-1,-6
6,1,-67,-31,1,3,-5,16
11,8,41,49,6,2,6,27
3,11,27,-31,5,3,11,6
-24,-38,109,69,-8,-12,-16,-20
-1,12,-47,18,-4,-5,4,3
5,-9,-53,-4,5,0,-2,-1
-1,20,32,-38,-1,-1,-4,-3
9,23,-5,44,-8,-2,-3,4
-3,-57,-33,20,11,0,-9,-107
1,-12,-39,-37,5,9,5,4
2,8,49,-59,-15,-3,17,127
1,7,32,25,1,3,-9,-101
-6,-5,2,8,1,-5,-6,33
5,-3,-21,3,-1,2,2,9
13,65,8,54,9,-1,1,6
3,-23,60,-14,-2,-1,5,12
12,-14,47,-23,-9,0,-8,1
-13,-21,-93,-23,0,2,16,67
-22,-50,-128,-63,-9,-5,-5,92
-31,-41,125,21,-10,-8,-28,-128
4,17,70,84,4,-11,0,-17
1,15,28,6,-18,-10,-9,-6
5,6,26,23,18,2,3,-7
23,9,12,-8,7,7,22,32
1,16,-44,-24,-11,-1,3,21
25,-24,-64,-31,-7,-2,2,3
6,-2,-77,0,2,2,1,16
-51,-56,36,-70,-9,-12,-10,-13
1,-7,67,42,-8,-5,9,-82
5,37,21,-48,-15,-7,-38,10
6,0,-53,60,4,3,1,-13
6,11,58,17,3,3,5,1
-5,9,-25,-8,-5,-4,-4,7
0,-9,-128,-27,-6,-1,-2,17
-7,-26,10,-28,-2,2,2,-4
2,7,57,0,3,-4,-2,-1
6,-9,-14,-12,-6,0,3,1
-28,-1,-16,3,3,3,-7,-5
9,44,27,-11,0,1,3,1
-3,-12,-10,23,2,-4,-7,-17
10,-11,-27,1,6,1,-5,0
5,13,75,2,-4,1,-4,-16
3,29,-26,4,10,7,6,7
-1,6,20,0,-7,-3,-2,3
1,15,94,30,-4,-5,-1,1
2,10,-100,-7,0,-4,-5,15
-5,-50,-48,-44,-14,-6,-7,33
-8,-24,4,5,-7,-9,-13,-38
0,14,1,-26,1,-5,-6,0
0,-8,21,41,1,-1,1,1
4,14,28,-14,-8,-1,14,41
-20,3,-35,-24,-3,0,1,-88
26,7,-87,-90,2,11,25,117
-14,-22,100,40,-6,-12,-9,-25
25,15,51,31,3,-9,-14,-18
-84,-1,18,55,0,-7,-7,-8
3,22,-18,-3,-7,0,7,-1
2,23,-42,-70,-11,-2,-20,-24
3,-73,-24,-3,2,5,10,53
0,-25,-11,-13,1,0,-3,-128
-11,4,-32,-8,-4,1,-20,9
-5,13,2,-18,-1,-4,-9,-69
23,-4,-43,-73,-4,3,17,60
-2,-15,127,80,-11,-11,-12,-17
-3,18,45,63,2,-4,3,-12
10,-9,-105,-19,-4,3,6,78
-24,-19,68,-20,-5,-1,-12,-108
7,24,-32,-6,-2,-4,-8,3
12,-25,-62,-52,0,8,6,6
-20,-17,37,-2,7,-6,-1,-2
5,4,83,36,-2,0,-5,1
-6,-12,-102,-108,-4,8,7,5
12,12,18,-22,-5,0,4,2
-14,-4,77,90,-1,-11,-8,-16
9,26,36,0,7,0,3,75
-4,46,57,32,0,-2,31,-14
-28,-128,-67,-54,-14,-9,-31,-30
12,11,-110,-12,17,7,1,3
6,4,29,-22,-4,-7,0,7
7,23,-16,-25,-6,1,9,-13
23,1,15,37,7,1,-5,87
10,3,3,-22,4,2,1,0
7,17,57,33,-3,-2,-5,-4
19,18,-40,12,-1,-6,6,-10
-16,-30,4,13,-5,-7,-1,23
-18,-19,-50,-13,-11,-5,-8,-8
-3,-1,-9,-53,0,0,-2,-9
12,9,27,49,17,8,5,2
7,8,53,33,5,2,-2,0
6,1,23,-9,-6,-1,-6,-23
-9,-9,-26,-19,-5,-3,-7,-39
-1,-4,-73,-2,-1,6,2,-33
1,4,7,-5,3,5,-4,-5
1,-2,26,17,-1,0,4,14
-4,-9,-53,-23,-6,-3,-1,1
-2,-6,-34,-43,3,6,-3,-11
-1,0,13,21,2,-2,-5,9
-2,27,-73,-19,-1,-6,-9,-3
-9,3,-12,-18,-7,-3,-1,-4
16,30,34,19,11,7,30,103
3,17,6,4,3,0,-32,-29
33,-51,43,16,1,1,0,1
-4,-5,-56,2,-9,-7,-3,63
-42,-1,8,-21,-1,2,7,-35
25,32,70,14,12,5,0,72
-25,-95,-128,-48,-19,-8,-6,-8
5,8,-3,-36,-2,1,-1,2
11,20,26,18,2,-2,3,10
8,14,42,33,6,6,10,13
25,-12,-38,10,-10,-4,-3,-10
-38,-16,-57,-102,-6,1,-18,-8
12,-2,40,14,-1,-3,-3,8
11,21,9,19,-1,-1,-1,-8
0,46,53,68,2,-5,-3,2
12,-31,15,32,-2,-5,-8,4
-17,-21,-47,-3,5,2,16,42
-5,-1,-19,-35,-5,-7,-7,54
-17,16,-9,-22,-6,-1,-7,-24
2,-35,-28,-6,1,1,3,7
16,26,-5,3,10,0,-1,4
-26,7,15,3,3,-2,-3,-1
-6,12,52,-8,-10,-10,-7,-4
0,-42,-13,28,1,2,8,-8
3,17,17,9,9,1,-5,-3
16,6,-31,-8,3,5,5,8
13,-44,-20,4,6,3,-10,5
29,0,109,36,-11,-12,-9,9
-100,-6,-24,-22,-14,-3,1,-20
1,-9,-18,24,0,2,5,4
12,1,-42,-9,2,0,7,11
-1,-11,-55,-49,-8,-6,-29,-12
9,14,40,17,9,3,-2,5
1,-10,69,-12,-6,-4,0,-3
-5,6,-19,-8,-2,-3,-2,2
-5,-12,-20,2,3,-1,2,40
-9,-13,-21,-37,-2,-6,-3,-26
-12,-41,90,91,-8,-9,-4,-3
5,34,23,6,2,-6,-6,1
-2,-8,9,-1,2,1,1,1
9,0,-58,-66,-16,-2,14,50
-9,5,3,7,0,-3,-31,-28
7,17,56,79,8,-1,0,-6
-18,44,-1,47,3,-3,3,-21
17,-40,-49,-110,-12,-8,5,13
-72,-30,16,-15,-32,-8,2,16
-1,-23,-31,-2,21,6,1,17
23,4,-75,-54,-8,-1,-9,-128
53,19,42,60,2,0,8,27
-101,8,-22,-20,9,1,-7,-63
-13,26,-1,-5,-1,1,15,34
6,20,96,33,-8,-14,-17,-55
-2,-4,-21,59,1,-9,-2,-2
3,2,9,-25,-1,4,3,14
5,-11,-14,-3,-7,1,-1,5
-2,-9,-48,-15,3,-1,-4,-7
5,-5,-12,-17,5,3,3,2
2,-2,-1,-13,-9,-5,0,9
-6,-4,-4,-27,-11,0,3,3
-2,11,55,-7,-2,-5,-1,-2
-10,-8,-4,31,6,-1,6,8
6,-6,-8,-28,2,0,-14,-108
-3,7,16,53,-1,-1,-18,0
-3,10,10,-5,-5,-2,-4,-5
15,11,15,-28,2,0,4,103
12,4,-12,24,-1,0,0,38
-24,-9,7,-22,-6,-1,-12,-114
-19,32,-20,-11,1,7,2,-17
10,1,4,16,7,0,-3,-4
9,21,-5,-9,5,2,-4,6
31,44,38,-15,-4,-4,-6,-10
-27,-109,33,7,-5,-4,1,2
-8,-8,-84,8,-2,-1,-5,-10
-2,26,0,-13,-3,-3,1,17
8,36,6,-6,4,-2,0,47
-2,-33,13,16,1,1,-2,-6
-6,-6,-9,35,-9,-2,0,-1
-20,-6,11,-41,2,0,1,-4
0,19,80,26,-5,-4,6,-13
-2,1,19,8,-3,-7,1,7
55,11,-28,-22,0,5,4,87
-29,-10,-28,8,7,-1,-11,-25
-2,1,-12,2,0,1,-3,20
-1,-1,-5,-7,-1,1,1,-15
1,-4,-11,-11,-3,0,2,5
2,-3,14,13,0,-2,5,7
7,2,8,-2,-1,0,-6,8
3,-8,-5,27,4,0,-3,-53
4,2,-15,-25,-1,3,-3,-79
-17,19,-16,-51,-4,-3,-6,-13
-26,-21,72,51,-3,-7,-3,18
-8,-17,32,52,-6,-11,-3,2
7,14,0,-12,1,0,-4,0
8,-8,1,-1,3,1,-4,2
4,3,-13,-11,-3,0,2,0
4,8,-37,-43,-11,-2,-7,31
-5,-40,30,14,3,1,27,-15
-15,16,5,19,4,-3,-48,-24
-3,-20,-40,1,-4,-3,-5,-7
19,12,-1,-24,-3,-2,-4,20
-66,6,41,24,-1,-3,2,-54
-14,-10,5,1,-5,-6,5,-11
-28,8,-23,4,2,-6,-11,-95
-10,19,30,10,-6,3,-4,-10
6,0,-20,-52,-4,2,-4,1
-4,-17,45,26,-6,-5,-4,0
1,-3,41,19,-2,-4,-4,13
0,-5,17,9,4,3,-9,-95
13,8,-60,4,9,4,-1,7
-2,20,42,-17,-6,-3,1,5
-5,-21,-29,15,0,0,-3,-4
-3,9,22,-26,-6,-2,-1,22
17,-2,-2,-28,-11,-2,-1,-6
-24,-6,-24,33,-1,-5,3,-21
-5,-2,21,20,9,1,-21,-5
14,21,11,0,5,6,14,-3
-8,-11,7,-2,-10,-9,-15,-13
-1,-4,-52,-51,-9,-2,-3,-30
4,-2,28,-18,-1,-2,0,6
44,16,61,47,4,-1,17,8
-63,2,-53,-3,1,-3,-4,-19
-7,-10,-25,3,-1,-4,-9,9
10,-1,5,-11,6,0,2,-26
-7,4,-9,-9,-3,-4,-6,4
-5,-88,-17,-16,-15,-5,-5,-2
0,-1,2,-24,-1,4,3,-6
5,15,-13,13,13,10,4,10
27,-66,-20,11,-1,3,13,-32
-70,-7,2,-23,-4,-3,-13,-101
-1,8,77,-28,-10,-5,7,-16
28,12,-1,39,-1,0,-5,42
-7,-21,4,-40,-3,-6,-1,-61
3,3,21,32,6,-4,-17,-26
16,11,23,45,-4,3,9,2
-41,-16,-22,-9,5,4,-3,-2
13,-17,-26,-36,-3,2,15,4
-15,-20,-13,-4,-1,-4,-28,1
-3,10,-19,26,11,2,2,-42
-8,-11,10,26,-7,-9,-12,-10
0,2,-32,-114,-9,-11,-4,-3
2,0,-12,35,-10,2,2,8
-2,6,11,-24,-2,4,-2,-17
9,-1,0,19,9,3,3,44
-8,11,-7,11,3,-4,-8,-33
9,35,50,0,4,3,1,6
-8,-2,22,14,7,7,2,0
-7,-9,-87,-23,-4,-5,-3,27
-10,-19,-12,17,1,-1,0,-51
2,14,38,6,0,-7,-15,7
1,18,23,21,3,4,1,-3
6,16,-2,9,10,6,17,32
-2,20,-20,-17,-3,1,1,-18
-2,-12,-7,-12,-2,-2,-6,-14
0,11,1,-10,2,2,5,14
7,6,-17,-9,7,-2,-3,-2
-1,-3,6,56,-7,-6,-6,-6
-1,-29,-67,-29,-9,-4,-3,-3
-33,2,-4,8,-1,2,2,-14
19,71,63,29,9,7,4,29
-32,-10,-41,-52,-8,-6,1,-42
49,18,13,-21,-2,1,-25,-82
-11,2,-4,8,-3,-4,0,-10
3,0,4,-8,0,-3,1,8
18,23,-23,25,3,0,1,46
-4,-8,-14,-79,-11,3,3,-15
-9,-18,73,75,-8,-9,-10,4
6,1,13,40,8,1,4,-6
2,18,-11,-10,-2,0,-3,-2
4,7,-6,-9,1,1,4,2
-5,-59,-57,-37,-6,-4,-1,7
-4,4,56,-88,-3,-3,-23,-38
-2,17,0,44,-1,-3,-5,-7
8,3,-31,-25,-4,3,7,5
-8,-11,-7,3,3,0,-3,-7
-6,11,32,-5,-2,0,2,-14
6,4,-11,-27,-5,0,7,81
-4,18,27,21,0,-2,-7,-2
3,4,35,27,4,1,-11,-12
3,-22,-58,-54,-3,1,7,3
1,-5,-13,14,-13,-7,-1,-33
-4,6,57,41,14,3,-2,2
7,31,92,98,18,-2,-1,-4
-12,-27,-1,19,2,2,1,12
-10,-13,-116,-106,-15,0,8,-16
9,-18,-44,-43,-9,-7,-15,-12
-1,-2,-6,-19,-6,1,-1,-14
-1,5,58,8,3,1,1,3
5,0,-34,35,6,0,9,19
-2,-6,-21,-13,-4,-2,-10,-2
4,22,13,2,1,-1,-5,-5
-3,-28,-24,-10,-1,0,-3,-6
-1,2,4,8,2,2,10,-9
30,40,30,-1,-2,1,14,81
-3,17,-29,-31,-5,-1,-17,-119
-1,20,21,2,-8,-3,0,-2
-12,-69,-28,-33,-6,-2,-2,-11
20,6,20,31,9,0,9,56
-3,18,87,114,0,-9,-12,-26
0,-12,60,-42,-10,-8,-7,10
-7,-12,-76,-116,-12,0,-4,-50
8,-2,-64,2,3,2,4,18
-15,15,-1,-9,0,-1,1,0
-1,9,28,15,-6,-4,0,11
1,-2,-8,15,3,0,1,-13
3,-6,0,11,-4,-4,-3,-1
-2,2,0,-14,4,1,0,4
1,-5,-40,-38,4,0,-3,-2
7,-6,-21,16,-2,4,14,-4
-10,-4,-47,-26,-1,-9,-7,28
-11,32,69,39,-1,-4,5,-65
6,-3,37,33,-3,-5,-24,0
-19,10,-10,-24,-13,-13,-13,-30
-2,11,2,18,6,1,-6,-32
3,-2,-15,17,1,7,0,0
-5,-19,-37,-80,-17,2,3,6
-2,13,57,-42,-4,-3,7,-1
1,-5,-14,37,-1,-3,-10,-4
12,10,40,-25,-1,0,6,17
-1,-10,-128,-34,-1,-2,-4,-9
-6,-17,39,42,-4,-8,-6,-5
-14,22,33,31,-2,-2,-4,-4
3,38,35,3,8,7,2,9
2,-69,-58,-16,-3,0,5,39
22,13,19,-16,11,11,5,3
-4,16,16,-7,-7,-4,-3,2
15,-10,-67,-11,-9,-6,-5,5
-15,41,-12,-34,-2,-2,7,58
0,-8,-10,25,5,-2,-6,-11
-15,9,87,59,-1,-3,-2,-9
7,10,60,-32,-6,-2,-1,-1
-5,5,32,33,-4,-10,-6,-6
0,-13,-47,-11,-1,-7,-3,3
0,4,1,7,-5,-1,4,-2
-7,-7,4,-10,12,0,-2,-6
2,0,-25,-28,1,0,-1,3
1,4,-15,-17,-1,-1,-2,2
7,-40,-2,2,1,3,1,11
-9,10,-24,-25,-7,7,0,4
-7,-5,-64,0,-4,-4,6,-17
-3,2,33,12,0,-7,-16,-12
-3,-2,-11,9,-4,-5,2,8
-6,-6,-40,-67,-5,-4,-12,-3
-6,9,27,40,1,-1,-2,1
17,3,-3,0,8,5,11,127
-29,-25,2,-6,-16,-9,-12,-47
-7,13,6,-10,-8,-3,6,10
15,4,-15,3,3,-1,-33,-5
-1,34,29,6,4,1,3,7
-22,-99,-103,-30,-5,0,5,14
-10,13,53,27,-3,-4,-11,-33
4,8,-35,6,-3,-1,0,5
7,-21,-28,-15,-9,-7,1,-4
0,10,7,10,-2,-3,-1,11
4,-3,-10,-15,9,5,4,-2
1,-13,35,9,0,2,-1,-4
14,-1,-40,-16,1,1,6,19
-46,7,-16,-1,1,-1,4,-30
-10,0,-21,-35,-10,-4,-4,-37
6,-31,-3,-7,-6,-2,17,28
-11,2,-21,14,1,-8,-29,-7
7,20,13,-14,1,2,7,3
-2,-19,29,18,-8,-2,-8,-16
9,7,16,16,4,8,10,5
5,75,7,59,5,3,0,-2
-5,-7,-33,-52,-3,-3,-3,-1
0,6,-4,-26,-9,-2,-1,-2
7,-21,-22,-40,-7,-3,0,57
-2,0,-37,-13,2,1,3,26
-15,-15,20,32,1,-2,-4,-17
8,-11,-58,14,0,0,4,20
12,1,-30,-32,-9,-4,-10,0
-41,11,89,53,-1,-7,-8,-17
6,20,14,22,5,1,-1,-5
4,-10,-17,-24,-8,-3,-2,7
10,21,5,-7,0,-5,0,0
-5,7,-8,-16,-6,1,2,-13
-7,4,51,7,5,-2,-1,12
-8,-35,-99,-11,-2,-4,-2,-7
1,-28,-67,-48,-15,-7,0,-12
3,20,71,81,12,4,-4,4
-4,8,41,-41,-5,-5,-6,-5
-3,1,35,37,-6,-7,-16,-30
15,0,-30,-4,-4,-6,-13,-106
0,6,13,-7,1,-3,1,33
-6,15,18,-11,3,1,-4,-17
-2,-15,14,93,6,-1,-4,-10
11,-1,-40,-69,-3,1,5,34
2,2,-26,-63,-4,-1,-2,6
0,7,19,28,-2,0,-1,-2
-3,-15,16,28,0,1,5,2
4,10,-7,9,2,1,2,21
0,1,-49,-13,4,3,13,12
-13,15,30,1,-3,-7,-12,-11
-3,5,45,45,-1,-2,9,-6
-7,-28,-15,28,6,4,1,-9
3,-20,-94,-74,-4,-4,-5,15
1,5,-11,-26,-3,-3,-1,61
1,5,35,67,1,0,3,-19
-45,-13,-60,20,-10,-6,-7,-16
5,27,46,-18,7,7,1,-85
11,20,-60,-52,-9,0,1,12
-16,-36,-8,4,-2,1,-3,1
-5,-33,-16,-3,2,-3,-5,-9
8,-1,-56,-35,0,-1,1,14
-3,17,34,37,-11,-5,-5,3
5,17,20,-25,11,3,-5,-6
-9,-25,38,36,2,-4,-4,-4
0,10,19,12,-2,2,20,-9
-1,-4,-33,-26,-9,-4,-10,1
0,7,37,-4,-5,-3,0,4
1,0,-4,-17,-3,1,-2,-1
5,7,40,-12,-2,1,-1,0
-2,-17,-62,2,1,-2,-2,-1
-20,-14,-79,24,-1,-3,-3,17
7,-3,31,53,4,1,-1,-1
1,6,21,-35,-3,-3,1,6
0,14,32,-10,-2,-1,-1,-4
1,-49,-106,-25,4,7,5,0
-3,16,39,14,2,-2,-3,-8
14,4,56,36,-8,-3,6,30
-4,-6,-1,-10,4,4,-3,-7
-14,-8,-51,-12,-8,-5,-3,-79
5,3,0,-53,2,3,1,-13
-13,9,21,62,4,-1,-7,-3
1,-15,0,-13,-8,0,1,10
19,-15,-11,-38,-4,-4,-7,5
-66,-20,7,20,-1,0,-1,-2
7,19,-12,-22,-1,-3,0,6
-2,20,18,36,2,-3,-4,-11
2,-6,29,-19,4,3,2,13
-12,-11,-88,-14,-3,-2,-3,-12
-16,-27,-12,26,4,-4,-19,-34
7,-10,-10,-24,-8,-4,3,19
-5,25,-8,32,-1,3,4,10
2,17,3,-41,-1,0,-2,4
0,5,-16,-32,-9,1,-2,19
-7,3,-13,-3,0,2,-1,-90
1,17,30,13,7,2,1,0
-7,-41,-87,2,1,-3,-4,2
-2,12,29,16,-8,-5,-1,-5
-2,4,43,0,-2,3,2,3
1,14,-27,22,3,-4,-4,2
6,0,-35,3,1,-3,-1,6
-3,12,-48,-4,-10,1,-4,6
-4,-23,56,-15,-1,-2,5,43
-2,17,17,17,-3,-2,-4,-34
-8,-15,-22,-28,-1,-2,3,18
-4,-3,3,12,1,-5,-1,5
1,3,-14,-13,-1,-3,0,-26
0,3,-5,8,4,0,2,0
-3,-12,-34,-14,2,0,-5,0
4,22,10,8,-3,-2,-6,-7
-1,-31,-10,-3,-3,-2,5,15
8,9,7,-11,3,1,-6,22
1,15,-1,12,-5,2,3,-8
-15,-23,-86,-18,-2,-6,-16,-16
4,9,34,18,-4,-3,8,20
4,-6,-52,-42,-13,-5,-3,-2
7,20,40,1,-2,4,2,6
-5,11,12,54,8,2,7,38
2,-17,-68,-30,-2,-3,-7,-49
-1,-7,108,11,-1,-3,-4,-1
4,-3,2,4,-3,-6,-9,-27
7,10,43,33,5,-2,1,2
-40,-14,-91,-64,-7,-2,6,-7
37,10,-25,-63,-14,1,-4,6
-51,-4,91,83,-1,-7,-9,-3
3,-7,-27,-5,-6,3,3,11
18,15,40,-58,-6,-5,1,-8
-19,-19,63,77,-2,-7,-4,-10
17,49,-88,-21,0,0,4,47
-6,10,-1,9,4,-1,-11,-37
3,1,-9,-17,-4,1,1,65
6,13,1,-14,-5,-3,-8,9
0,9,15,5,4,4,2,-13
0,-4,-34,-4,0,-1,-5,40
2,5,-25,-40,-2,1,2,10
-6,5,54,18,-2,-3,-4,-11
16,-4,68,95,5,0,6,33
-5,-19,-8,-56,-16,-10,-11,0
-4,-6,-7,-35,-9,-9,-5,1
4,5,-21,-2,-3,3,7,-4
5,-4,-25,-19,-2,-1,2,-4
10,-1,-19,-19,-2,-3,-3,19
8,18,68,20,8,4,0,-1
-24,8,93,114,9,-7,-8,-8
-2,-10,-74,-54,-10,-2,1,-10
2,-5,-31,-58,-13,0,7,-2
1,-6,-22,-13,-1,0,-11,-19
3,2,17,29,4,0,3,9
1,10,24,16,-1,-2,-6,-1
-1,-15,-3,25,5,1,4,17
0,9,-14,6,0,-2,-5,-15
32,8,52,-7,-7,-5,3,-1
-30,4,8,18,0,1,-16,75
10,20,35,-1,-2,-1,6,-2
-12,-17,-52,-15,-7,-7,-7,-7
0,-61,-56,-1,-14,-12,-3,-1
-2,10,-33,-26,-1,1,-4,2
6,17,40,19,8,4,-1,0
-5,-16,2,-31,-2,-2,-3,-2
-2,-21,-23,19,-7,-2,-2,-1
1,13,-7,14,10,0,2,2
3,7,53,36,-2,-2,0,-1
-2,0,27,23,-8,-7,-16,-15
-8,-20,-32,-10,1,-4,-4,-2
9,12,33,17,6,-1,1,4
1,-5,-37,-32,-5,-2,0,-2
-23,1,10,-8,1,3,0,0
5,-10,4,16,1,-6,2,15
-15,6,-20,-28,-3,-5,-13,-73
9,-23,85,20,-3,-4,0,19
9,6,-17,2,4,3,7,20
-10,-36,-25,2,-2,-1,2,-12
5,13,98,12,-8,-4,-10,28
-7,4,-28,-54,-3,-2,-1,-18
-7,-14,-15,2,-5,-7,8,30
-4,2,-17,33,3,1,-9,-13
-7,-14,-15,2,-5,-7,8,30
-4,2,-17,33,3,1,-9,-13
-1,-1,37,31,1,-4,-1,2
-1,-21,-8,1,-5,-4,-2,2
