Channel_1,Channel_2,Channel_3,Channel_4,Channel_5,Channel_6,Channel_7,Channel_8
17,3,24,38,11,-8,-44,-4
14,-44,-128,-13,-18,-20,39,29
-85,-60,30,-21,6,22,0,-5
-8,-81,-91,-25,-9,0,-17,-21
-7,-6,17,0,-12,-9,-7,0
9,20,5,16,10,3,-28,-5
21,41,-18,-46,-8,-2,-4,8
-13,28,8,-25,10,11,-35,-17
12,75,127,68,16,1,20,7
-30,-88,-128,-57,-3,7,30,-16
3,18,-6,32,-13,-30,-11,-9
-15,-64,11,3,-25,-9,6,-4
-11,-9,36,21,8,-10,-3,-10
5,-5,-37,-37,-2,19,7,7
-9,-16,-7,-53,8,18,-12,2
-18,-75,35,-50,-25,-17,-2,-10
-4,-11,-35,7,2,1,10,-1
13,27,17,110,1,11,-7,1
14,41,-37,19,27,-1,20,5
-5,13,102,53,-8,2,-22,7
0,-49,1,-107,-32,-22,-5,1
-4,-85,-124,-61,-30,-4,-35,-29
-39,-4,-128,0,14,30,10,12
-16,33,-20,-26,-5,-6,1,8
45,-18,68,23,-4,5,18,-8
-44,50,-36,-27,-14,-13,1,-4
-18,-37,-10,70,16,5,10,11
15,-38,-22,-118,-2,27,17,4
7,10,23,-60,-10,-2,-14,27
20,11,-18,25,7,0,-7,46
5,30,-53,33,-6,-8,-57,-40
-10,-45,-19,44,8,4,-2,8
13,47,69,-49,-11,16,10,28
-6,-24,18,-62,-3,0,-18,-4
4,4,15,15,0,10,-10,5
18,-1,0,6,-3,-8,103,104
17,56,8,17,5,3,27,-116
-13,-60,-19,6,2,-2,-13,-34
-58,-56,4,95,-3,12,-39,-96
-8,-40,2,-84,-25,-15,-9,-93
-7,56,32,-128,-40,-3,14,31
27,-46,-65,22,-11,-7,38,17
-43,10,-15,59,-1,-19,-106,-128
36,25,-24,-11,10,15,39,-27
-42,-22,-45,-23,3,-3,10,-128
5,62,127,86,8,2,70,127
-9,-49,39,51,32,19,-2,13
-3,19,-35,-89,-16,9,14,11
-6,-69,-15,-111,-46,-24,-6,12
19,64,33,-23,-19,-17,-13,27
-10,8,-4,69,8,8,-11,-38
-11,-113,25,18,44,29,9,42
-13,11,8,62,6,-17,-21,-21
-6,-12,14,16,-4,-7,-2,11
9,-20,21,127,16,5,-4,70
-2,6,-48,-128,-23,1,3,-128
20,4,35,61,-22,-15,15,13
-38,-21,-98,69,29,4,-4,127
-13,-13,14,0,-10,1,-35,-40
0,-25,-29,-128,-40,-12,-7,8
2,-9,21,78,31,10,20,25
6,8,19,-13,20,5,-5,10
7,7,-90,-104,-25,-11,-8,28
-6,3,-37,-65,-14,-9,1,-54
-13,-17,36,9,-16,-15,9,114
44,19,14,62,14,5,2,122
-57,29,30,11,-3,3,-6,-128
1,-6,-16,-54,3,-1,-1,-36
1,70,-27,114,6,-13,-11,10
5,-55,17,-128,-13,4,9,13
30,2,-108,20,-17,-11,-5,35
-36,6,53,-24,8,1,-21,-48
-61,-8,-29,93,7,0,-2,1
13,10,17,-128,12,6,0,0
4,11,19,-128,-51,-8,-7,-33
5,-65,-9,70,-1,-2,-7,25
-15,-11,-38,88,12,-3,-32,-47
0,50,8,-65,-3,-5,-8,-20
4,15,23,-53,-8,-2,0,-5
-4,22,10,-66,-8,-3,-4,1
4,6,-3,111,5,0,8,7
1,1,-9,-128,-12,-2,4,1
-1,-19,12,56,10,4,-1,6
-4,12,-76,127,72,12,30,3
11,-8,-10,-95,-2,1,2,-4
1,-12,43,-128,-81,-24,-2,-4
-12,17,-2,127,-62,-18,-5,-20
9,-12,17,82,16,-1,-3,46
4,44,53,127,16,5,-3,-94
9,-49,-77,59,41,9,-3,105
-16,-30,-75,-9,-14,0,1,-99
-60,75,36,127,24,4,7,4
-44,-7,5,-49,16,6,3,8
33,-61,15,-128,-51,-16,-15,-8
17,-21,56,127,6,-2,-3,-2
2,60,-117,-107,-2,-5,-13,18
32,64,20,-52,8,6,14,-4
-19,-78,-14,-40,-5,-1,20,-10
11,10,53,-28,-6,-5,-10,-1
0,13,-26,-47,-12,-9,-14,-13
29,15,-11,22,7,5,4,15
6,18,-17,0,7,7,17,7
-6,17,-33,-9,6,-1,-6,-6
23,-34,85,-21,-14,-14,-12,0
-69,-31,17,-6,-1,2,5,-9
-4,14,-27,-59,-12,0,1,-5
16,-9,-1,119,11,-3,1,3
-10,13,-6,-92,11,3,-10,-1
14,35,-12,17,15,-5,9,-3
-31,-1,17,-52,-12,-6,-3,-7
2,-19,-34,-26,-1,2,0,22
16,29,15,61,1,3,17,-30
-15,13,-2,-42,0,-8,-22,39
-53,21,-49,-40,-9,-3,19,36
29,-38,37,38,-5,-12,-11,-9
16,21,99,63,-10,-10,-15,-17
8,-86,-81,-16,-2,-1,3,-1
-15,-62,-121,-27,4,11,10,7
10,25,70,17,11,15,6,14
15,21,-66,-12,19,4,-3,-3
-1,44,64,51,3,-2,10,2
19,27,127,11,5,2,5,6
-60,-46,44,-5,-45,-24,-11,-9
-2,38,-76,-32,15,0,-13,-5
0,5,-116,-40,4,5,2,4
-1,-79,-26,-6,-5,3,0,12
6,43,78,11,0,-2,-2,-26
-4,8,34,11,1,-1,-2,-11
29,38,-27,-10,7,4,10,2
-4,18,87,15,4,0,-1,5
-13,99,-119,33,1,-5,-6,4
-29,-72,99,-36,-29,-17,-11,-20
3,37,30,-10,17,11,6,3
-8,-1,-71,-20,28,21,13,11
-7,-60,-5,-43,-16,-7,-12,-9
2,-5,73,40,-3,-7,-9,-3
-2,-7,-12,14,-8,-6,-3,-6
25,72,104,20,4,4,12,7
-1,8,-128,22,8,-4,-11,-3
-6,-26,4,5,-15,-2,-6,-4
2,28,17,-36,6,8,12,6
-10,-10,22,2,-1,5,1,-2
2,41,-4,47,-45,-21,-8,-2
0,50,-38,41,14,4,8,13
48,80,81,-56,88,46,25,10
-35,-83,-128,-96,-5,1,-1,-6
-2,11,-4,-16,-39,-12,-10,2
4,48,66,12,2,-7,-10,-6
6,26,-2,56,-7,-11,-14,-15
-26,-114,-128,-19,-2,1,7,7
37,30,79,27,-4,1,9,9
1,11,12,22,-6,-11,-12,-2
-55,-128,-17,-3,-4,-4,-3,-11
1,19,14,-11,-4,0,5,13
-29,-61,-10,11,6,3,6,-1
7,98,-32,-15,6,2,-2,-3
-28,-85,5,-12,-15,-11,-14,-25
32,-95,-58,56,-16,-4,-2,0
-8,-19,-128,-111,11,0,-3,-6
14,14,-39,-7,9,6,3,2
20,-1,83,7,-9,-10,1,-10
-47,-11,-12,-2,-11,-11,-9,6
20,9,6,17,5,3,-4,2
12,23,30,15,-1,4,5,5
28,36,-19,-16,-12,-8,-5,-4
-2,-128,62,-6,-4,-7,-9,-5
-19,-45,-128,-24,-2,1,-4,-9
-28,-23,-2,-32,-5,0,-7,-12
50,9,102,70,16,-2,7,10
-1,10,4,-8,-5,4,27,99
-92,47,27,-4,-1,-6,-50,-128
-7,-16,-39,-14,-5,-10,-11,-38
5,68,30,-5,-1,-1,6,-4
7,-51,-10,-7,-7,4,5,4
-8,-17,-10,-9,-13,-9,-4,-4
0,-14,-108,-13,8,4,2,0
21,106,-15,-9,8,8,5,13
-12,-125,38,20,-8,-7,0,-3
10,39,64,14,-2,6,11,-1
14,23,-37,0,-2,-2,-5,16
26,7,-128,-65,-20,-10,-8,13
6,27,-22,-52,10,9,4,2
-31,19,22,2,-7,-11,-21,-28
-45,-128,35,19,-13,-19,-28,-8
11,9,-27,18,5,7,-26,5
24,9,-58,-18,-1,-3,53,9
40,51,-24,-35,2,-7,3,12
15,64,127,48,10,7,1,1
-12,-60,-94,13,3,3,0,10
34,-19,-128,-34,-13,2,-11,-5
49,-22,-67,-27,-7,0,-10,-1
-23,33,39,2,0,1,18,64
-35,-15,-18,-43,-12,-13,-15,-101
-5,29,85,58,7,-2,-8,-8
-8,10,24,21,11,2,-7,28
-1,15,18,8,-3,1,14,-15
3,-11,-86,-29,-12,-5,-14,5
12,16,-13,-14,10,12,9,5
-11,-42,54,-4,-2,-5,-2,7
22,45,-75,8,1,8,8,27
-7,8,-17,-30,-3,2,10,-14
-13,9,127,29,-21,-14,-14,-7
-6,38,17,-2,24,4,0,-4
13,42,15,-1,13,16,16,15
-4,-19,-20,-20,5,1,-8,-3
-1,3,-12,-2,-12,-7,20,0
0,11,43,0,2,-7,-24,-5
18,39,127,45,-7,-5,-16,23
-31,-67,-128,0,-14,-18,-16,-55
2,-68,17,-49,12,5,-2,-3
-19,27,-50,-22,5,14,15,1
20,25,28,3,3,3,0,16
6,16,10,-2,-4,-1,18,-19
-18,-41,-16,3,-5,-3,16,10
17,42,56,48,4,-6,-18,-9
-34,-41,-36,28,-13,-11,18,-19
-30,19,-1,-94,-38,-18,-17,-16
1,-55,-20,-24,9,12,0,-3
24,34,38,16,17,12,7,21
14,21,-32,30,4,2,-1,12
11,11,11,19,8,2,10,-2
-7,7,7,-2,-3,-7,-8,-18
-10,1,8,16,-14,-5,-12,-19
-11,6,-27,-24,5,2,-2,-2
-8,-28,-15,-6,1,-7,1,0
14,-17,2,4,-5,0,-8,1
17,22,-10,-9,-11,-10,6,9
8,1,12,7,-2,3,10,-2
4,-31,42,11,3,4,3,8
-3,-10,-81,11,2,-2,-5,3
7,44,41,-59,4,7,2,-11
-69,-26,20,-20,-22,-12,-13,-17
14,-33,16,45,0,-2,6,20
20,87,1,-37,-9,4,6,4
3,-45,16,6,0,-8,-17,-1
2,-90,16,20,22,12,5,-2
5,-30,-19,-31,-12,-4,-2,-9
-12,61,-3,-2,-10,-12,-21,-30
7,20,6,8,-4,-3,10,23
9,20,18,10,-1,1,-29,13
7,-14,-2,4,-9,-2,17,-13
-18,46,23,47,9,-5,-5,-1
23,71,32,-29,-2,2,0,3
-4,50,-44,-2,10,7,-8,-6
-46,-57,3,-19,-6,-1,8,-9
-20,24,36,13,-4,-6,2,27
-6,-50,-16,6,0,-8,-22,-2
-37,-15,-19,5,-25,-9,-10,-17
25,73,-121,-27,-2,2,22,-6
-33,-128,22,-18,35,11,-3,-7
4,34,18,0,-1,-3,2,0
4,21,24,34,-6,2,2,6
23,14,-3,-13,-3,1,-1,2
-15,81,-3,4,-6,-10,-6,-2
-64,-32,20,8,-1,-3,2,11
8,0,13,9,0,-5,-9,13
5,-7,-22,-8,-9,-4,13,-16
7,112,13,-9,-3,1,-48,-6
-30,-51,-35,-7,-4,-4,22,-32
6,-12,7,9,2,2,25,15
-2,6,0,-2,-7,-21,9,8
9,17,5,15,1,-2,-23,5
19,19,1,5,-4,6,35,39
-19,-28,-23,-48,-11,-1,0,-68
9,42,4,16,12,7,5,34
-29,-61,59,15,3,-4,-23,-87
-7,30,-9,-9,-9,1,6,10
8,-5,-2,1,1,2,5,12
20,15,-28,28,-8,1,-3,64
-36,-14,-36,30,-21,-5,-11,16
-30,17,-13,-116,15,1,6,-31
15,12,13,100,4,6,-16,-4
10,36,14,-37,42,25,27,-19
34,-11,12,-8,-9,1,-15,123
-11,41,0,-35,-10,-6,79,-71
-18,-36,-5,19,-3,-13,32,43
5,9,-1,40,0,-1,-41,49
33,28,5,-23,-9,-2,26,119
-20,-15,-6,51,6,3,-14,-128
-49,38,61,94,15,2,-23,-128
37,-4,-37,-128,-20,-1,0,72
-71,-128,-48,24,-19,-9,19,12
47,-29,-1,42,8,2,30,47
-56,28,50,64,10,-3,-75,-128
-9,52,24,-3,3,2,-8,-128
-4,-30,-21,127,15,7,11,51
7,39,-30,-128,-8,-3,-11,-61
28,20,38,14,-23,-3,22,57
-13,78,26,86,5,-3,-13,-81
41,-44,70,52,5,1,19,79
-13,-61,-2,23,2,2,34,32
14,-9,-20,17,7,-3,-48,-35
-35,11,-22,5,3,3,69,116
-44,-12,-26,-80,-5,2,-24,-128
14,37,13,-34,1,3,-22,117
-44,32,11,-12,-4,-5,-32,-128
-32,-17,-32,-29,-7,-13,-11,24
-4,-3,8,13,2,7,16,82
4,-48,38,-24,-6,-5,17,-17
-11,36,-40,-32,3,6,-4,-63
30,-1,26,-11,-3,-4,14,127
-13,-11,106,42,0,-1,0,-70
10,-12,-96,1,0,-4,-7,-44
-3,18,-72,-10,2,3,4,33
7,46,-14,18,-1,-1,7,-87
-1,40,22,-36,-1,1,9,-2
-2,17,47,36,7,0,-6,11
4,88,-7,-12,-10,-3,1,-55
0,-1,-23,-16,-5,1,1,-7
-2,-13,-10,-10,5,3,9,21
7,-49,25,-13,-2,0,-13,-16
-4,-71,-95,-3,-5,-2,-2,-9
1,-12,-41,-9,-11,-11,-8,61
1,-37,-31,-27,-16,-8,-5,-18
1,28,81,47,24,9,6,-7
5,-23,-34,1,11,8,10,100
0,-18,0,-12,-6,3,-17,-55
3,99,64,12,1,-4,-1,14
-16,-26,-69,-21,-12,-9,-11,-21
10,-73,-128,-27,-7,-4,10,20
3,31,-83,11,-9,-5,-7,-9
-8,-4,3,-17,18,7,-2,0
1,-12,-11,4,4,3,11,16
-25,-50,-15,-4,-4,-8,-11,-16
8,-4,52,19,-6,-4,-5,-4
5,24,59,-6,-3,2,4,-8
16,-64,18,9,9,4,7,24
-1,13,-20,14,1,3,0,-2
7,36,95,3,0,0,3,2
-27,-37,-19,-7,-16,-13,-13,-24
5,86,120,-5,13,11,2,-2
-12,-25,-32,-38,0,-2,2,-5
-30,-56,29,12,-15,-8,-12,-46
17,17,47,63,7,-2,6,20
3,13,28,7,1,1,-5,-2
1,25,24,-11,2,9,1,-2
7,12,15,-33,4,20,10,5
9,30,-41,31,4,3,3,9
-13,-17,38,-28,3,-13,-14,-6
-21,25,-121,-14,-21,-19,-26,-21
-7,15,-14,-1,-10,-5,1,-3
-16,-29,-84,-11,-10,-7,-9,-7
19,40,35,13,3,3,-1,4
-8,-70,-27,-4,1,0,3,-2
9,54,-28,0,2,2,4,15
-4,-128,5,-26,-22,-19,-15,-4
26,98,-8,-23,23,20,16,21
-29,5,-17,-24,-32,-26,-27,-13
-12,-32,41,39,-8,-10,-17,-17
38,94,39,67,19,6,15,22
-11,-72,-32,49,7,2,-4,-10
-48,-128,9,-128,-20,-1,-14,-15
40,125,127,48,15,8,17,33
-4,-113,-128,-35,-14,-6,-1,5
-7,-4,26,7,-4,0,-2,-2
-14,-6,30,18,-8,-7,-2,-11
-2,-17,-11,-18,-11,-2,3,-10
10,10,4,11,14,1,2,4
8,16,-12,54,17,10,2,5
16,34,-13,-30,0,2,11,10
7,41,-4,0,-6,2,5,4
5,-15,69,-128,0,3,-3,-2
-20,-93,23,58,-35,-26,-17,-13
-13,13,16,96,27,-1,-8,-20
23,124,28,0,6,9,13,33
34,11,68,14,18,17,18,34
-37,-101,-23,-114,-30,-7,-9,-2
1,10,-4,26,-20,-7,-4,4
6,19,14,24,50,17,5,0
7,-58,12,18,-7,-6,-2,-1
-21,-31,73,15,-2,-1,-11,-11
17,-4,-114,2,-11,2,4,7
-6,20,-27,-23,-33,-21,-7,-8
-20,-128,-21,-43,-37,-23,-18,-14
-18,-8,-16,60,3,6,4,-11
0,-71,18,7,44,16,9,-6
27,127,83,7,-3,-6,0,19
4,12,-18,93,-5,-12,-12,-3
-6,-23,18,37,-39,-7,4,-12
14,18,18,-116,-11,2,1,7
1,-58,-99,-98,11,18,15,8
-4,-66,-128,85,-2,-7,-7,-8
-8,11,100,23,13,-4,-4,-1
2,19,9,-47,15,12,13,27
-16,-75,-24,-15,-16,-4,-2,-11
3,30,-25,68,-20,-12,-25,-31
8,39,32,-53,-21,-14,-3,-12
-18,50,20,0,-26,-12,-21,-19
-1,-36,-37,39,-58,-15,-2,-4
10,50,-2,-45,62,27,10,39
4,-102,-57,7,57,15,7,22
-4,6,-71,-39,-12,-13,-26,-17
-1,-39,51,-10,-25,-15,-26,-4
-41,-27,-8,49,-11,-15,0,-11
8,-3,24,12,7,9,16,2
-2,-11,12,56,25,8,-12,-9
25,32,20,26,20,14,3,17
-11,0,-31,-128,-40,3,14,6
12,-20,23,32,-21,-8,8,15
24,32,32,-40,39,10,18,21
0,0,-20,20,-28,-6,-12,-42
-10,-88,-92,37,14,-6,-42,-9
-36,-49,-16,18,31,11,26,-23
5,34,1,37,-5,-11,-14,14
-8,-77,-64,16,-25,-14,3,2
10,51,-22,-102,6,6,2,6
12,-10,33,-29,9,8,-6,14
-1,9,-69,-8,-31,-4,-7,-4
-1,19,3,3,-24,-6,6,13
-1,-43,77,6,28,-2,-5,-2
-9,13,15,127,22,-1,-8,-17
-1,29,-91,-128,-7,-3,-22,-18
3,-18,-10,-10,52,9,-5,1
1,72,11,-84,-23,2,3,15
12,-90,34,50,-2,-2,9,14
-7,119,-66,9,2,-5,-3,5
2,-45,-4,-44,-7,-3,-1,-6
24,20,31,47,-19,-3,6,20
-15,-13,-26,-39,-12,-12,-8,-15
-18,54,28,-18,-8,-5,-1,1
-18,-74,-45,42,25,6,5,-9
4,-12,-4,-30,-6,-5,-2,-7
-2,47,-3,-6,1,-5,-13,-4
-1,-9,-10,2,-16,-7,-6,-4
-2,8,5,-8,4,2,4,1
11,23,24,10,7,6,15,30
22,47,44,52,18,2,4,7
-3,-21,-44,-51,-19,-2,2,-14
-23,-9,-13,18,-9,-21,-11,-16
-42,-37,7,11,-14,-5,-11,-23
3,19,73,-4,11,4,3,-20
9,-43,-128,-59,-17,0,-12,2
24,8,-13,-14,25,7,5,30
-4,51,49,23,-2,-3,27,-4
-21,-79,-27,-14,-16,-10,-30,-33
5,-13,-19,16,-8,6,17,5
8,12,22,56,25,3,23,12
11,35,12,-1,8,4,-6,9
8,31,59,5,13,-4,-6,3
-11,2,-61,-29,-12,-3,2,24
4,0,6,-30,-2,7,-6,-3
-1,19,11,17,4,8,13,-3
-9,-19,5,8,-4,-10,-21,-52
-13,2,1,10,-14,-17,-35,-32
-3,2,-1,-5,-7,-4,5,0
-1,-2,2,39,-2,-4,6,4
0,-2,-10,36,-1,1,-4,8
12,3,-20,-101,-11,4,22,8
13,36,26,-13,-8,-5,-4,6
-25,20,32,41,5,-3,-13,-8
-20,-50,-62,12,6,8,7,-10
-3,-78,-32,-40,-8,0,-2,-2
-7,-14,15,24,31,1,-3,6
9,34,9,-28,-23,1,5,9
4,8,2,-27,-20,-4,-8,-12
17,73,61,126,86,18,9,24
11,-20,17,-62,-10,3,-1,-1
-12,19,-25,-36,-23,-12,-5,-6
6,12,7,0,-14,-1,-5,9
-10,1,9,28,2,5,-6,-1
-22,-1,-3,5,-10,-6,11,-25
17,21,10,27,1,-7,-3,8
23,-9,4,2,10,-3,-8,17
6,22,33,15,-1,6,10,1
32,2,16,10,-10,-5,-5,-3
-35,-48,-32,24,3,-3,-15,-18
-14,12,9,-9,7,4,1,7
-1,10,13,93,-8,-2,7,-11
-7,-28,-30,-128,28,8,7,-8
3,9,-7,21,1,1,-10,-8
16,8,25,9,-6,-5,2,5
15,67,-14,16,-5,-4,0,7
11,29,36,-59,1,6,11,10
-28,-24,-32,50,11,0,-4,-8
-13,-16,-4,-35,-17,-1,-3,-5
20,4,-9,24,0,-2,11,-1
-22,-20,10,-21,6,1,2,-15
-21,-2,-7,20,-11,-14,-23,-7
14,34,18,42,3,2,6,11
-5,-17,54,8,-17,-4,15,0
-1,-65,-77,-26,10,8,-13,-9
2,24,-7,-91,2,3,7,17
-5,-27,-14,-30,7,5,2,-4
-4,14,-14,11,3,-1,-2,-8
-6,5,17,34,1,-7,-26,-20
13,8,6,-5,-9,-7,-3,6
1,-2,-1,12,-3,-3,0,2
-5,-3,-3,1,-3,1,7,0
4,4,5,3,-11,-7,-4,13
10,3,9,54,12,2,5,9
-4,-13,2,34,21,6,-1,1
-13,0,2,-60,-4,-1,-8,-18
17,-28,-16,-59,-12,2,5,15
1,-17,-40,-61,0,-1,3,1
14,39,39,12,-16,-3,-4,0
0,-128,11,31,-4,-8,-2,-6
-37,-12,-29,7,-15,-12,-30,-28
7,21,17,-20,-2,8,13,7
13,66,8,12,-3,-2,9,6
-8,-72,14,-7,-13,-12,-16,-12
5,24,-14,0,-17,0,3,3
-1,14,32,67,23,-3,-4,-5
-13,-50,-26,-46,11,0,-11,-14
4,1,-4,5,-4,7,17,11
6,18,1,-25,24,4,4,-16
0,-1,2,41,-9,-8,-3,23
6,5,-1,36,7,7,12,9
1,4,-5,-76,-21,-15,-15,-3
-3,0,4,21,8,-1,-19,3
5,5,-3,-26,-10,-4,9,-1
4,1,-18,1,-8,-7,-5,5
-1,2,-11,18,2,-1,-1,-6
1,14,53,-12,-11,-7,-6,8
2,5,-27,11,0,2,19,-8
-7,10,-83,-1,-5,0,-3,-2
-10,15,38,22,-13,-11,-10,-9
-6,40,47,38,20,4,-3,-1
6,-94,-71,-116,-8,7,17,15
10,7,7,27,-6,-2,-7,-7
6,-12,5,5,-25,-11,-1,5
-5,0,-1,40,36,9,0,-4
8,9,-23,-16,11,13,6,5
-1,4,-21,32,14,-4,-4,-5
11,-50,105,-39,13,10,6,4
-2,-14,-23,-64,-36,-7,-10,-12
-16,2,4,1,-6,-7,1,-2
0,6,11,36,-2,-5,15,7
10,23,16,31,1,-1,-11,-9
2,10,-4,5,-7,-7,1,-22
8,0,-10,-43,-18,-2,-5,3
-4,-4,-5,28,8,-2,-1,3
-5,-10,1,3,-12,-4,6,-1
-6,-13,6,-16,-5,0,-13,-19
4,12,5,53,62,19,13,8
7,30,8,-17,12,5,11,15
15,53,3,36,31,13,17,12
-22,-101,-18,-128,-34,-4,-11,-13
-23,-22,-47,0,-13,-16,-30,-39
10,-40,-13,13,-9,-8,0,3
-2,-11,-6,-24,-4,-5,-1,1
-9,3,12,12,-4,-1,-1,0
1,-50,8,22,-6,-2,0,0
7,111,14,22,-9,-5,-1,2
7,25,9,-31,0,9,2,0
-1,-9,-4,-9,40,5,3,-4
8,9,-14,30,-2,-2,0,7
4,-21,-64,-35,2,-1,-4,5
-4,0,5,11,-5,0,4,9
-21,8,-3,-68,-20,-9,12,-11
-7,-11,-2,10,-4,-8,-21,-17
-6,29,2,6,-4,-5,3,-6
-6,-67,7,46,-23,-12,-5,-6
-7,-71,-13,-63,15,7,2,-5
-3,22,6,104,34,9,5,-4
9,-23,-24,-42,6,5,-2,6
-3,1,-13,-29,-24,-9,0,-1
-10,-17,-1,0,21,6,-5,-3
-4,8,-6,16,21,11,4,-4
3,-8,6,9,-1,-5,-1,-2
-3,10,17,13,-12,-8,4,-1
3,13,17,30,0,3,0,6
-1,1,-24,14,8,-1,-9,-1
-7,-78,-2,-24,-5,-2,-4,-1
-8,-38,8,-3,-6,-5,-1,0
15,55,8,-1,1,5,-11,8
-14,17,6,16,-1,1,2,-16
-4,3,17,-7,-4,-4,1,-10
-5,-10,-1,-14,-24,-3,-6,-6
-1,11,23,127,19,-4,-11,-3
-3,-8,-39,-128,37,20,4,0
17,83,3,-58,-3,2,7,9
26,49,-2,53,45,17,16,9
12,47,14,12,0,0,0,-4
-16,-111,-62,19,0,-7,-17,-14
-9,0,22,-28,-23,-13,-2,-9
15,69,2,5,-13,-7,-11,1
7,2,11,14,2,2,21,4
9,17,-3,-12,-10,4,0,-1
-6,-19,-8,10,-1,-3,-14,-13
0,9,22,-9,-5,2,-1,-8
-5,-31,-58,7,12,6,-5,5
17,5,6,10,0,-3,-2,-1
-16,-7,-9,33,-6,-6,7,-6
0,12,-14,-76,-13,-5,-3,6
-1,-6,-4,-5,2,1,-2,0
-1,0,5,18,-3,-7,-2,-1
2,-4,18,97,-16,-14,-7,-4
2,-10,-15,-43,15,2,1,-1
5,28,-13,-50,-4,8,6,4
5,16,14,45,18,3,0,3
0,1,-6,7,-2,3,-4,-4
-5,-11,-3,-27,-10,-4,-2,-1
-12,-12,-2,-28,-30,-9,-10,-13
-2,-7,15,38,-6,0,3,13
4,68,-7,-12,9,1,2,1
-22,-42,-27,-7,-7,-6,4,-13
-9,-61,-41,-27,-26,-8,-19,-5
3,4,9,-5,6,-2,-8,-6
7,4,1,18,6,2,2,2
4,2,7,7,-3,-7,4,4
-4,-8,10,27,-4,-4,-5,-5
19,39,2,-34,1,8,14,30
1,-9,-56,-59,23,12,10,-18
-29,-100,-17,-8,-27,-15,-16,-26
-12,0,6,-2,-3,0,-17,-11
3,19,5,9,-1,-2,-1,-3
0,3,-6,-3,-7,-7,-4,3
-5,-34,0,8,-9,-3,-2,-1
-1,-6,-4,33,19,4,6,3
-2,6,-20,-24,20,12,2,5
3,5,-9,-10,-18,-5,2,13
12,11,21,40,35,10,4,17
20,35,7,-52,-5,7,13,4
-34,-17,-4,1,-26,-15,-11,-10
8,76,15,28,5,-5,-14,0
2,0,-87,-60,-4,0,5,-1
5,26,-4,26,-2,-8,-4,2
-5,-31,-28,11,1,2,6,-4
-11,-20,17,6,-16,-5,-12,-28
11,-4,7,21,28,7,5,11
-3,15,-21,-22,-22,-8,0,6
22,11,18,-20,0,12,8,30
-10,7,13,13,6,-3,5,-9
-13,0,-6,-24,-6,-1,-11,-15
12,5,2,36,1,-3,11,-2
-1,25,-4,-28,-15,-7,-5,1
-5,-70,-18,-29,-2,0,-1,2
-2,-3,3,-6,-13,-5,3,-2
-2,4,5,69,36,3,-2,-9
-2,3,-11,-62,-9,2,0,9
1,2,-4,4,0,-2,0,-2
8,15,18,42,9,2,0,20
12,13,20,22,-27,-15,-3,16
9,17,0,-2,52,18,1,7
-8,77,-76,-57,-4,0,-3,-12
-3,-24,-2,-40,-24,-5,-10,-4
1,15,12,26,8,-4,-2,0
8,8,6,12,-2,-6,2,4
-1,-7,4,27,13,4,-1,-7
-2,4,7,39,-15,-16,-13,-8
16,14,-8,39,14,10,5,20
-18,-21,-68,-50,3,1,-6,-6
-8,-23,2,-29,-7,-5,-14,-10
2,-3,2,-13,-10,0,6,-2
1,6,-6,-29,-16,-6,-14,-13
-3,-5,7,26,1,0,3,-3
0,-7,-4,12,3,-6,-1,1
-3,-1,-1,15,-6,-4,1,0
3,-30,-4,40,20,8,11,9
3,12,-14,-94,-16,2,9,-1
18,31,15,17,-16,-12,-21,-2
-6,5,9,52,30,3,3,-4
-4,-16,-8,56,18,3,-3,1
-1,3,-11,-51,-12,-5,3,1
-3,5,10,14,-9,0,-6,-9
-4,7,3,21,19,-2,-1,-3
2,-5,16,20,-5,-5,-2,-1
-13,-26,-21,-24,-6,1,-3,-17
11,-2,3,47,21,15,35,21
-7,85,19,21,-12,-13,-14,-3
4,55,-16,-28,0,-3,-8,3
1,-13,0,-45,0,3,6,-2
-1,-14,-10,-9,-18,-13,-7,1
-6,10,-2,18,4,0,-3,-6
2,8,27,24,11,4,1,0
30,44,-6,24,-1,-1,4,17
7,1,-6,7,3,0,-3,4
-36,-90,11,-26,-20,-9,-7,-12
-18,11,-2,19,-2,-2,-15,-27
2,6,9,-6,-22,-10,15,3
1,-14,-5,41,25,7,-8,-2
8,17,0,-76,-34,1,-1,-1
-1,10,16,51,33,-1,-10,6
3,8,-2,-14,15,2,28,10
11,4,-10,-36,-23,-5,-2,4
0,2,2,24,9,-4,-14,-19
-5,16,7,-2,-4,0,4,-1
1,6,0,5,-6,-1,2,5
-5,-24,-7,-2,-9,-5,-9,-8
4,7,6,63,23,0,1,1
1,-9,-1,6,5,4,-2,-2
3,-2,-17,-121,-34,-5,2,1
-1,-7,-7,3,-9,-5,-4,-4
-2,-43,-7,-38,3,3,-3,0
3,10,8,20,-5,1,9,-6
-26,-8,-20,-48,5,3,1,10
8,61,35,67,20,-2,-4,14
3,-76,-92,-20,-17,-15,-25,-9
-39,9,25,2,-11,-11,-12,-33
-9,-20,-16,-16,-16,-8,-4,-7
6,-39,-12,-26,-15,-5,6,3
9,22,15,44,26,10,2,12
0,11,8,25,2,-3,0,5
2,45,15,-41,-21,3,-3,4
-6,-86,-13,-45,-5,-1,9,2
6,17,8,37,1,-3,3,11
-10,-63,-53,16,23,15,-15,-5
-1,9,-2,-10,21,3,11,4
-8,21,7,-1,-16,-8,-8,-13
-6,-11,-1,25,5,-7,-6,-4
1,-10,-2,0,-14,-8,-6,-5
3,-17,-7,-26,-7,2,4,5
-19,-15,-5,-11,10,3,1,-1
-7,-29,-20,3,-10,-6,-4,-3
-1,17,3,-34,-12,-5,-6,11
1,-31,8,33,1,3,6,10
7,23,32,-26,-1,8,-1,6
0,46,-53,-26,-3,-8,5,-5
-26,-23,6,63,10,-4,-16,-11
-1,8,11,6,9,-4,-9,-7
-2,-37,-4,33,3,2,-3,-8
6,3,-6,-14,14,6,6,2
0,2,-1,4,-5,-6,-6,-6
-2,12,4,13,-15,2,2,1
2,-35,4,31,27,-1,-1,2
11,9,1,73,24,-2,-5,-4
-5,-1,-9,-125,-49,-10,-2,-4
-26,43,-2,1,18,7,5,1
2,-27,3,-19,-5,-2,2,1
3,-57,8,22,-2,-3,-3,-10
-8,2,7,14,-5,-5,-1,1
2,3,5,2,-19,-12,-2,-11
-3,-5,-10,62,2,0,-7,-9
10,14,-10,-46,21,13,-1,4
-12,9,-1,14,-6,-3,1,12
10,5,-4,19,9,-3,-7,12
-5,-8,-9,-94,-23,5,-7,-8
8,63,6,62,3,-10,0,-4
9,-5,6,18,-4,-8,-9,-9
-8,-10,-31,-20,-16,4,-1,-3
-4,7,12,-28,0,4,11,3
-9,12,4,8,-19,-11,-9,-8
2,14,3,-13,-13,2,-1,2
0,-75,14,66,52,12,4,7
6,36,8,-4,5,6,3,3
8,16,34,8,11,1,-2,-2
10,-16,-28,-52,-9,-2,0,3
-21,-21,-7,3,-8,-4,-2,1
-4,13,20,32,8,-1,-3,-4
2,-5,4,-5,-12,-5,-3,1
8,2,19,65,21,1,-3,-9
-4,-34,-10,26,29,9,-3,2
10,-6,-2,-30,-15,-5,2,1
-8,9,-1,-21,-12,-2,-4,1
-2,14,7,17,2,2,-10,0
-5,20,-10,19,13,8,10,-7
9,-14,26,-3,2,0,1,13
-11,-47,-30,-5,-7,-11,-17,-27
24,38,1,-1,-20,-12,-11,-7
-14,0,12,73,-8,-8,-8,-9
-24,-11,1,12,35,11,-5,-8
2,4,-15,-74,-20,7,6,1
6,-32,-17,-109,-18,-1,4,7
2,-6,-6,-3,-9,-9,-4,2
3,5,3,18,0,3,5,6
-4,-1,12,55,14,-5,-4,-7
-1,7,4,31,-3,-7,-8,1
-5,1,10,7,3,2,0,1
7,54,-3,-72,-26,-2,1,-10
15,4,-40,18,7,-3,-5,10
-5,15,38,40,20,3,6,-2
-11,19,-13,-53,-15,-4,-6,4
-5,-14,-13,-19,-8,-8,-9,-8
-10,-11,18,68,-9,-5,-7,-9
11,22,-23,-128,-22,6,5,9
-4,-2,-30,-12,14,7,-10,12
9,-9,0,14,13,2,12,-1
-8,-5,-7,9,6,-7,-15,-8
2,-6,-1,7,-12,-11,-7,7
-2,3,1,14,-14,-8,16,-1
-4,-15,23,73,34,-2,-11,-6
-6,-11,-4,-2,-8,3,-3,-2
6,6,-3,-14,10,10,8,6
12,-8,-2,-60,-35,-9,-1,3
-3,-5,-16,-9,-15,0,-1,0
-7,6,-4,-15,23,12,9,8
-4,3,12,38,-9,-8,-9,-3
5,6,-8,-14,-9,-6,-9,-8
-3,3,-7,-53,-18,-3,-7,-6
3,-13,10,-5,-18,-5,3,4
2,-43,3,48,32,7,-2,-5
11,-4,19,6,0,2,10,18
14,44,-4,21,9,5,9,11
11,25,-4,-6,-15,-16,-24,-19
-29,-22,5,45,-8,-13,-12,-13
-24,-109,-33,-16,7,-1,-24,-30
5,13,-8,-128,-69,-1,1,6
4,10,-2,92,41,11,6,-6
12,-4,0,-12,-7,0,1,6
3,11,12,-10,-5,-3,-6,3
11,7,-3,32,-7,-8,5,5
5,8,-5,-7,3,-2,1,5
-5,11,6,27,0,1,-1,1
-16,-9,2,-28,-16,-8,-13,-17
-7,-17,-1,-15,-7,2,0,-5
4,-1,-10,-31,-12,-4,1,-1
-8,-16,12,54,15,-5,-4,0
-7,3,-7,-26,-19,-5,0,5
-4,7,6,0,-14,-9,-8,-2
-1,2,-6,23,28,6,-5,-9
-18,-9,0,3,2,1,4,2
7,-8,10,11,-4,-4,5,6
1,-31,-28,28,20,0,-14,-12
12,31,-11,-93,-22,6,13,9
-28,5,-4,11,-6,-7,-2,-10
0,-45,-1,63,24,8,2,1
-9,-22,-33,-89,-19,-1,5,-15
-3,-20,34,50,11,-5,-11,18
2,44,-2,-17,-22,-10,1,1
-10,-16,1,16,3,0,-7,-5
-1,-10,2,-55,-8,-7,-2,-7
3,5,8,38,11,6,2,1
3,4,-8,-50,-9,2,-2,-1
-1,-2,-3,-12,0,0,1,2
0,1,3,5,4,-1,4,-3
12,19,6,30,2,-3,1,5
-11,-5,-4,22,-17,-11,-2,-8
-10,-50,-15,-5,13,-5,-18,-16
0,6,9,0,12,8,1,-1
-2,-5,-12,-63,-13,1,2,1
-6,2,-8,-24,-7,-2,-2,0
-4,3,-5,12,-12,-6,1,-1
15,9,19,43,23,1,-2,-6
18,31,-18,31,-2,0,-2,7
-57,-13,7,-11,-30,-15,-9,-8
-13,-46,-22,-63,-31,-4,9,-20
11,9,0,41,79,21,1,6
0,-13,-13,-43,-14,-5,3,1
-1,7,9,-6,7,3,-1,-7
8,80,14,34,0,-6,-4,-2
18,19,32,4,-1,3,-5,13
-3,4,-48,8,-4,-1,12,11
-17,-10,-6,-39,-14,-8,-4,-30
-5,-12,7,82,12,-6,-18,-8
-8,2,3,-21,-9,-4,-13,-17
6,11,3,-56,-22,-1,6,17
-13,0,3,37,11,-9,-9,1
8,-13,-15,-51,-19,-2,3,6
7,7,9,6,5,7,1,-10
-2,7,1,26,20,9,10,10
2,14,-8,-20,-3,0,-2,3
-2,-6,-10,-3,2,-2,-4,-8
-1,4,1,-1,-9,-5,4,12
-16,-13,8,27,-6,-5,-3,-4
3,-4,-4,-33,-7,1,-1,-12
12,15,3,37,21,10,6,13
-4,-5,-12,-9,3,1,-10,-9
-8,-7,-18,32,-9,-7,-13,-12
18,-5,-3,-34,7,4,-1,7
-13,1,-13,-36,14,0,9,-9
3,10,6,28,-15,-4,-3,-1
3,-3,-10,-47,-17,4,6,4
2,13,3,-12,14,7,2,2
7,12,9,26,-2,-3,-1,0
-13,-27,5,24,20,6,-5,2
-1,-24,-9,1,-9,-8,-8,2
-1,23,13,3,-6,-5,-2,0
8,69,16,17,-4,-5,-9,0
9,62,-12,4,3,-2,-2,8
-7,12,-2,-10,-31,-12,-6,-7
-2,-17,0,-5,5,3,1,-5
-2,-11,-8,0,18,4,-2,-3
7,14,16,43,7,0,11,35
22,-4,-20,-99,4,12,0,118
-8,10,6,-14,-9,-1,-11,-128
3,9,9,11,-7,-3,-9,30
-25,-5,-11,19,-5,-2,3,3
-15,-11,7,18,5,-4,-37,-60
-8,-5,-6,-18,14,5,4,-27
11,-15,-6,3,3,-3,11,72
4,-5,20,-15,-11,-2,16,72
9,5,-13,-6,-1,3,16,33
-34,-21,-10,22,10,-5,-42,-35
19,37,6,6,-8,-3,-23,-5
12,7,9,-4,-9,-2,1,97
-14,-5,0,28,-3,-4,-8,-128
-2,13,-4,-10,4,3,6,-14
3,-2,7,1,-16,-14,-1,-9
3,7,0,26,16,4,5,2
12,38,-17,-82,17,18,16,-36
8,12,36,-15,-14,-4,9,19
14,56,9,31,14,-1,0,16
-11,-26,-119,-1,-15,-8,-2,-1
-25,-37,-18,-28,-12,2,-2,-26
-6,25,1,23,-2,-5,5,-17
10,21,46,10,8,0,-19,22
-7,-19,-19,4,-11,-10,-8,-31
6,23,13,103,9,-8,1,-4
-6,33,-15,-60,-29,0,-2,18
0,-4,-32,-128,-14,12,5,-13
-5,-16,-32,2,3,-4,2,19
-4,26,25,-37,-6,-1,1,-47
-1,5,-5,21,4,-2,3,-8
8,9,-3,6,-7,-6,-2,9
11,48,64,54,4,0,-5,0
-4,-8,9,-33,-14,-3,4,6
-20,-37,-43,0,-11,-14,-18,-22
34,68,35,28,9,2,6,34
-5,-64,-53,-36,-10,-3,1,-22
-23,-61,-53,-1,-13,-11,0,-9
-1,37,40,59,20,1,-7,-7
2,56,46,-1,-17,-6,-4,22
-12,-19,-59,-84,-26,-8,-4,-55
24,-69,-20,-20,-5,3,-1,18
-20,3,-9,25,9,0,8,-19
9,9,-19,30,-16,-13,-12,-6
-6,13,-6,-17,19,5,-1,-35
8,12,8,43,21,10,6,7
3,26,-5,-48,36,12,9,7
8,-8,23,14,-4,-7,-9,-8
12,78,87,30,1,-1,-2,10
-31,-119,-104,-6,-13,-20,-14,-19
-18,-97,-44,47,-22,-3,2,-6
-8,-31,-22,-76,4,2,-2,-2
8,79,26,34,13,3,0,5
3,1,0,-30,-6,1,1,5
13,53,22,-37,-18,-1,3,10
2,-21,-36,9,11,1,0,33
6,74,31,8,-4,-6,-12,12
-1,1,3,21,3,-3,-1,-29
-35,-103,-10,24,-21,-11,-3,-31
9,90,86,-11,31,5,-7,-5
5,-12,-81,31,-11,-3,-4,0
-31,-101,-86,-99,8,9,-3,-9
-10,-72,-7,-11,-11,-8,5,7
11,61,93,20,-2,-4,-13,-11
5,60,45,65,3,-8,-8,11
3,-6,-8,-28,10,4,6,2
0,20,-13,98,4,-3,-6,-3
35,111,71,-37,24,14,1,2
2,5,-32,-96,-41,3,4,13
-32,-74,50,-35,-22,-18,-17,-22
-64,12,43,32,2,-5,-12,-26
19,8,127,30,-6,-1,1,-1
-15,-69,-73,-7,-7,-10,-8,-15
14,127,-37,-91,-25,-5,-6,10
-18,-27,-14,40,10,1,11,-13
4,20,34,55,20,-1,4,-1
3,2,3,-56,-9,4,-2,2
0,9,23,17,-21,-11,4,1
12,59,54,105,18,-1,-4,-2
20,-17,-2,21,45,19,5,10
-21,21,20,-24,14,2,-4,-10
11,15,72,-85,-29,-2,6,8
3,8,-63,-36,-30,-15,-11,-5
14,18,-78,40,21,11,13,11
-41,-124,-42,12,-11,-17,-17,-20
-58,-118,-10,127,11,-22,-14,-31
12,43,-8,-40,-8,10,-1,-7
20,79,100,-69,11,19,19,39
-6,-12,-99,-64,-3,0,-2,-22
17,11,-20,36,-15,0,0,47
-16,-8,97,-4,7,-2,-7,-42
1,19,71,51,-5,-7,-1,1
19,127,-16,-11,-3,-1,-3,4
19,108,95,127,24,-6,1,11
9,-6,98,68,49,17,1,6
-26,2,-128,-128,-3,7,-7,-6
23,-85,23,-26,-3,1,16,13
-1,127,108,-68,-16,-4,-6,3
-28,-68,9,10,-21,-14,1,-22
-15,-9,75,72,-17,-24,-14,-31
0,10,-128,-41,11,9,5,-15
21,57,-39,-34,15,17,16,18
13,16,33,84,8,-4,-7,-1
28,-7,-47,36,10,2,10,24
-31,-38,-5,-4,-5,-1,-6,-15
4,-128,-10,-3,2,7,2,10
10,120,127,67,-10,-13,1,0
15,117,13,85,35,11,2,6
26,8,-95,-93,-2,9,26,16
2,114,114,7,-17,-1,-14,-2
15,3,112,-70,9,-4,10,15
-32,49,27,23,1,-11,-13,-16
-7,103,65,48,5,-8,-20,-10
9,48,-40,8,2,4,-3,-1
-35,-62,-69,-51,-21,-16,-4,-24
0,-43,-7,-24,-1,3,-8,0
31,22,-72,51,1,3,1,49
-53,35,-54,-51,-16,-16,-27,-58
9,-28,-19,-11,-2,1,5,16
30,23,57,51,2,2,1,2
-19,35,38,8,1,-3,2,41
-15,-56,-11,-6,-5,-6,-1,-21
19,79,24,0,-2,0,-2,4
-10,-113,-19,7,0,-6,0,0
-1,-64,-56,-38,-10,1,0,-1
7,14,8,44,32,13,14,12
14,-27,13,-4,4,3,6,64
-8,-2,-60,-39,-19,-6,-15,-27
-15,27,14,-45,-2,3,-2,-104
9,26,20,-2,-7,-8,-20,-17
18,65,29,16,8,7,8,8
-3,-18,-72,-13,8,-4,5,2
-17,-45,54,25,4,0,5,1
9,-35,4,23,-4,3,12,8
-4,12,88,-1,-15,-9,-16,8
-22,-16,69,28,-10,-8,-12,-12
11,2,-1,84,15,5,10,-11
-28,-86,-99,-128,-15,-4,-14,-17
34,81,31,30,21,14,18,30
-34,-99,0,-30,-16,-12,-21,-23
-10,-13,27,21,-3,-5,-5,17
19,24,6,31,9,4,-6,10
7,22,32,21,-13,1,9,-3
0,0,18,-17,14,-11,-15,1
12,35,6,29,11,2,-5,4
-9,-9,-66,-128,-5,2,-3,-57
-6,-31,91,-4,-2,-3,-4,-5
18,-6,-25,4,-1,1,-1,3
-48,-73,-14,-7,-10,-8,-5,17
3,59,-5,17,2,10,15,-11
-5,-128,-110,-3,-12,-15,-17,-5
-4,21,57,48,7,-2,-9,0
16,24,-128,-36,-1,0,3,7
-26,-66,-11,-35,-14,-15,-9,-15
14,-30,-47,-49,3,5,-7,7
23,112,21,3,-9,1,25,18
-45,-128,-29,80,-37,-25,-32,-12
-17,14,51,-11,18,5,-21,-31
-14,31,-35,-17,33,12,9,-21
23,90,15,-84,-4,5,2,18
27,44,58,75,15,12,19,8
-7,-89,-103,-56,-23,-14,-19,1
-29,38,-19,-48,-31,-10,-5,-6
-10,38,-17,26,5,-1,0,-10
18,28,80,26,2,-2,0,16
-7,127,46,11,-11,-6,5,-34
-29,-128,-108,-11,-10,-13,-12,-9
24,-42,-38,10,9,8,5,5
-22,32,-29,1,2,6,8,15
-20,-20,38,-7,-10,-13,-8,-1
23,53,45,8,5,3,-4,-1
-10,-123,-87,-18,-5,-5,-9,-55
1,69,35,14,10,2,2,-1
-9,19,-32,70,1,-7,-11,-4
-14,8,9,-43,-47,-20,-14,-4
9,9,-66,-128,-1,13,12,19
-6,-7,-22,-13,12,-4,-9,7
19,83,46,-8,9,-2,5,-3
37,94,36,44,16,8,19,30
-72,-128,-128,-20,-12,-14,-40,-44
6,90,-19,8,-10,-2,-1,-20
-6,47,50,29,-1,2,-3,-17
16,121,104,22,-3,2,-3,9
4,-67,-24,127,4,-6,-2,4
10,23,79,-12,-5,11,4,11
2,104,33,-128,-1,5,5,-6
56,104,-128,38,30,17,17,40
-90,-128,-21,-48,-48,-41,-40,-52
11,33,31,17,2,2,3,10
-7,23,67,11,-6,-2,-11,-9
10,-27,-33,77,11,-2,3,6
12,-42,-11,-53,-1,6,25,0
9,113,73,26,-12,-2,-23,-20
30,68,22,-45,18,17,34,28
-38,-114,-45,-35,6,-10,-13,-14
30,17,-67,19,-12,-8,-13,33
-22,64,19,3,2,7,-45,-43
-26,-12,54,3,-6,-11,-7,-31
15,26,19,25,1,1,4,-2
15,72,58,42,11,4,5,12
21,-101,-39,73,19,16,14,23
-87,-128,23,-90,-46,-35,-31,-36
-10,-27,-33,-16,-9,1,-3,-2
9,-10,-26,52,21,6,8,8
19,14,57,33,-6,4,4,20
-19,-94,-62,-128,-50,-10,-17,-4
3,-48,-73,-29,31,18,7,8
9,60,67,69,17,3,31,-7
1,-13,-72,60,44,8,9,-14
-13,40,49,-1,-17,-7,-11,-7
10,104,47,29,-13,-6,-7,19
27,21,-25,63,49,20,52,47
-6,-76,-117,-85,-20,-17,-31,-10
-62,-23,-39,-24,-12,-5,-30,-46
16,-26,-33,-2,-5,-5,-6,-11
-30,27,45,15,2,2,2,-52
-16,-22,-64,-3,-6,-6,22,21
9,19,49,20,4,-9,-14,-30
-8,-11,99,4,-9,-5,3,8
-2,-4,35,19,17,9,-1,-9
15,-21,10,-14,0,-2,-3,21
23,47,25,-5,3,8,8,21
5,94,22,-2,-11,-7,6,-4
7,-82,24,86,-6,-4,-7,12
31,-45,28,-124,-1,12,20,31
-33,-128,-85,6,41,-5,-23,-34
3,-88,-18,-3,-2,14,27,3
-12,127,25,-58,-11,3,-5,-9
8,20,25,30,3,-1,21,-1
26,88,96,55,10,3,-12,19
8,-24,5,13,-8,-1,11,11
41,38,6,48,20,8,12,47
10,127,0,75,0,-1,-18,-10
-61,-128,11,-55,-13,-6,5,-18
-25,-128,12,31,10,2,-8,-44
39,68,27,-79,-18,7,3,24
40,21,-46,-53,-15,-2,-3,44
6,-128,2,3,8,-7,-14,41
-67,-128,-86,69,47,4,23,-55
-8,37,-16,-122,-31,-3,-17,-44
10,98,2,-101,-27,-12,-18,2
27,53,46,12,12,7,9,17
12,8,36,56,16,6,9,15
3,-110,-128,37,9,1,0,8
-14,4,58,-53,-13,-2,-8,-2
11,36,31,-21,-18,-6,-1,5
5,-9,23,20,1,0,4,6
21,119,22,39,-2,4,5,8
-6,-69,-21,10,11,9,2,-1
-9,9,-107,-32,-11,-4,-5,1
-12,100,28,-46,-13,-14,-13,-12
-24,-81,-106,-1,4,-8,-19,-6
50,127,-21,-5,3,9,18,41
17,-18,127,35,-4,-5,6,56
-36,127,-16,14,-8,-1,4,-101
-27,-128,-128,-22,-19,-23,-22,-23
-7,51,8,6,-13,-10,4,-4
13,60,57,68,3,-3,0,7
35,122,-78,17,6,14,17,24
-5,34,20,-128,-12,4,9,10
1,-68,15,32,2,-6,-3,4
-8,21,22,70,0,2,-7,-2
28,12,-41,47,18,13,14,22
-6,78,72,-115,-2,3,5,-6
6,95,112,-36,-8,2,0,4
-30,-128,11,9,-5,-8,-11,-7
-8,-12,64,4,5,6,2,8
-2,-128,-110,11,2,-1,-6,-24
-24,39,34,-67,-5,-10,-19,3
9,127,5,18,3,4,7,1
3,53,47,27,11,3,-3,3
9,-3,18,116,11,-1,-11,-5
28,127,127,-39,-22,-8,-2,4
-74,-50,-128,-128,-68,-25,-25,-27
11,-116,66,105,33,9,1,6
-12,90,12,-128,-7,2,-3,19
11,18,18,-6,-9,1,8,6
13,6,22,6,-6,2,-3,2
6,39,-3,-4,-12,-5,9,4
0,-6,0,26,2,-1,-4,1
25,-78,30,17,-5,0,-10,18
-29,-104,-37,73,21,4,15,-41
33,127,82,127,24,3,13,11
-33,-128,-95,-128,-33,0,-8,-4
24,63,-128,-46,-23,-5,0,13
-6,-128,4,-2,8,8,9,7
-6,126,-6,9,-9,5,10,10
-16,-86,27,14,-5,-15,-19,-14
-9,-45,75,19,7,8,-11,-13
20,-2,25,3,16,3,5,15
47,127,83,127,40,15,16,30
-68,-128,-114,-128,-55,-27,-37,-26
37,127,-67,10,31,21,21,48
-24,-80,119,-9,-34,-17,2,-18
9,-19,42,3,-7,-2,-22,-10
-18,23,26,-20,-7,-6,-9,-27
1,20,-27,53,14,-14,-1,-6
13,0,13,127,24,15,8,21
13,21,40,-128,-28,4,26,10
-9,-49,-22,1,-2,-17,-19,-8
11,-97,13,29,1,-5,1,7
1,-121,17,35,-1,3,-10,2
-4,3,-26,-64,-15,4,1,-5
4,-128,56,63,-1,1,-7,-16
-20,-89,-75,-42,-11,-15,-18,17
-5,31,7,-3,-7,-4,3,-20
11,80,10,-128,-26,-10,-18,2
-8,-128,-128,-38,2,-9,-3,-2
-10,-57,-7,26,-3,4,15,19
7,22,-91,-64,3,-1,-14,12
-68,-128,17,54,23,-10,-31,-64
10,-2,-37,70,2,-6,-12,-6
8,18,31,47,-12,0,0,6
3,-99,-128,-128,-4,4,4,10
23,36,63,58,8,6,11,20
2,-52,-128,15,-7,-1,1,0
-44,-66,15,35,13,-4,-29,-16
4,8,21,58,18,5,8,7
1,-5,18,-90,-13,-7,-7,-15
29,66,11,6,-15,2,6,25
23,127,46,-26,-11,14,6,-8
13,-15,9,15,45,19,7,15
-47,-86,-11,42,0,-14,-20,-2
0,-40,-16,11,3,-5,-16,12
-37,107,44,55,-6,-15,-35,-56
20,83,24,-31,-6,3,-1,1
3,11,-56,-32,-2,-4,15,-10
1,127,104,-41,-8,-7,-12,1
-41,-128,-91,-14,-36,-20,-15,-28
7,48,17,30,8,0,-6,-5
23,-72,-46,-32,-12,-1,4,7
8,40,12,-18,-3,8,10,22
5,43,21,20,-1,-2,-4,17
-17,-31,-22,-12,4,5,10,-15
33,90,0,46,16,13,4,19
-25,-128,-87,10,-21,-26,-29,-6
-14,113,-67,9,-2,-8,17,-30
-14,38,-56,-5,-4,-4,-17,-8
-3,-106,-45,2,0,3,1,-13
14,127,119,21,-11,1,-4,5
-12,-128,-94,-109,16,3,-12,16
-8,50,-11,44,1,-13,-12,9
33,127,-20,35,25,20,8,9
-9,101,105,-31,-3,2,5,8
-78,-128,17,-38,-40,-39,-48,-81
4,2,-66,-10,-20,-16,-20,18
-17,94,-10,26,21,13,26,-15
4,-24,-21,13,-4,-12,-16,-4
34,35,-18,75,24,14,16,20
44,103,84,-69,-12,0,5,35
-76,-128,-128,-56,-18,-13,-14,-35
-1,22,-94,-17,-9,-7,-8,-1
17,68,120,32,8,8,10,-6
-16,-128,-88,-50,-12,-9,-6,-19
19,-42,6,53,7,3,-6,31
-32,41,30,23,8,6,12,-50
-23,-119,-46,28,-2,-6,-1,-26
20,49,69,-39,9,9,11,17
-14,-97,-128,-116,-23,-7,-11,-3
-9,80,-2,45,20,0,-7,-4
2,74,49,24,6,-5,1,6
27,-91,-46,21,7,8,3,39
-14,-16,-57,22,4,3,2,-9
-30,111,-20,-20,-14,-17,-24,-43
38,127,127,45,8,7,2,34
-35,-91,-90,-2,-14,-14,6,-26
8,49,-49,-35,3,5,-9,2
-6,-128,-34,-86,-11,13,-6,-11
-4,-46,19,31,3,-7,0,-1
13,62,19,11,21,1,6,9
11,127,127,85,12,2,3,5
13,-128,-64,-7,-2,2,2,10
-55,-128,-128,-90,-27,-6,-11,-20
23,60,43,-1,-2,3,4,21
13,54,9,-45,-11,0,10,-14
-15,-30,12,-4,-4,-1,-7,-6
9,-90,18,49,28,10,4,7
-1,-84,11,16,-2,-6,-4,4
-10,2,-23,-12,-11,-12,-16,18
-21,-1,-20,52,-2,4,-10,-33
55,45,101,-2,32,29,15,34
-51,-100,-128,-28,-7,-8,-19,-41
38,127,41,-2,1,5,23,11
-47,-128,53,-20,-13,-14,-28,-31
3,-28,-63,-3,3,7,5,1
-18,-89,17,3,-14,-8,-5,5
9,73,26,53,0,0,-2,6
-4,30,14,-47,8,-6,-7,-3
21,20,-53,-44,3,-1,22,32
-3,-76,-91,22,-3,-4,-17,2
-20,8,22,-7,-19,-9,9,-26
5,8,-62,-49,-14,-4,-7,15
50,127,127,-10,14,15,15,25
-2,-86,-58,38,4,-4,-8,-4
-20,42,50,65,0,-6,-13,-9
6,18,18,-27,-3,5,-4,-7
-3,36,28,26,5,-7,-5,-14
-7,-63,65,40,8,7,4,9
-6,-105,-128,-41,0,13,6,-5
-3,-9,93,-4,-15,-16,-21,-11
-14,29,19,39,-4,-8,-6,-2
-6,23,31,-2,20,13,10,-19
17,65,-19,-6,-4,1,26,0
4,5,13,-4,-6,-2,-3,6
-3,84,-14,-45,6,4,-3,1
-20,-122,-84,26,-12,-17,-12,-11
18,127,59,-43,-5,2,8,14
-31,-128,12,-32,-27,-16,-25,-25
-22,-70,-128,-9,3,6,-2,-7
-12,6,5,65,7,13,19,3
3,20,-1,-3,9,-5,-6,5
53,127,-4,4,22,20,21,0
-9,3,124,-18,-18,-16,-23,3
23,127,127,25,-7,-9,-4,21
-27,-128,-108,-19,-14,-12,-12,-4
-2,9,-13,9,-1,6,7,-14
-10,21,-1,17,4,-2,-16,-3
-11,7,7,12,0,-1,8,-20
18,56,67,27,2,1,1,9
7,-14,35,12,-4,2,-8,0
22,-5,49,-58,-8,9,15,29
-39,-53,-29,65,6,-4,-14,-31
-8,-36,-89,-81,16,4,6,-7
6,56,-4,-1,-4,-9,-2,-4
5,-8,2,31,2,-1,7,8
16,63,59,-101,-5,11,6,14
-16,-84,-128,9,-12,-22,-17,6
39,127,127,43,18,11,13,12
-63,-128,-90,-95,-46,-34,-7,-60
-30,10,-11,55,13,10,-7,-8
86,127,87,90,58,46,48,54
-71,-128,127,-95,-70,-56,-41,-27
-5,62,89,3,12,12,4,-5
-6,-26,-49,31,0,2,-1,-8
6,94,-11,-13,-10,-7,-16,3
9,-43,-44,19,8,5,-5,2
-3,26,57,17,-10,-6,-4,-2
-11,3,8,-42,-14,-6,2,-7
4,25,-20,33,13,4,6,16
61,127,101,61,19,22,14,25
-32,-35,28,-76,-29,-12,-3,-15
-22,-15,15,40,7,-2,-12,-14
18,106,-35,-14,3,2,2,13
23,-128,-78,77,29,10,14,6
-7,49,51,-11,6,3,-15,-5
-27,-57,71,-28,2,10,20,20
-24,-23,-94,-35,-26,-15,-21,-25
58,123,33,6,2,17,26,17
-41,-86,-128,-20,-10,-16,-17,0
-33,-128,-128,-21,-15,-11,-8,-30
21,87,125,25,12,9,6,8
-14,-67,40,46,-12,-21,4,-7
4,43,11,-72,-31,-7,-7,10
-23,65,-22,-49,-15,-5,-20,-43
21,48,-17,50,27,8,12,13
18,-33,2,-26,-6,4,-2,27
-44,126,127,12,-17,-8,-20,-46
-14,-70,-59,59,11,-8,-7,-8
32,97,1,18,30,15,10,16
-41,-9,-128,-67,-33,-23,-19,-13
-13,-13,-14,13,5,3,0,7
5,46,12,49,6,3,3,10
9,36,27,46,6,-1,-4,-1
23,115,64,-26,-14,5,5,7
-12,-103,-34,-128,-41,-11,-26,-2
-33,-106,-28,-2,-5,-9,-11,-30
-4,-37,-112,57,30,4,-5,-11
8,-8,-12,52,3,-4,-5,2
5,-109,-2,-34,5,5,4,-1
32,98,121,-8,34,13,8,17
-16,-31,-72,-25,-4,-3,-7,-31
-2,31,-8,30,-3,-6,-10,11
18,82,-15,36,3,7,20,5
-11,12,72,-28,2,-1,0,-8
31,18,12,-42,-20,6,3,22
-17,36,122,38,-2,-13,-19,-27
-21,-19,-128,-2,13,5,-8,-20
19,113,10,18,3,13,15,13
-10,-82,57,-31,-11,-16,-14,2
11,15,35,38,3,9,21,2
20,94,34,-34,-21,-6,-5,13
3,-105,-10,58,43,2,-5,6
8,37,64,31,-3,-1,1,-19
-30,116,127,-60,-19,-15,-12,-15
-25,-40,-96,60,3,-3,23,-10
-21,-41,27,45,9,4,-9,-20
13,8,-1,-128,-21,1,5,7
11,-34,-54,64,15,2,7,10
1,-8,5,83,11,-4,-7,8
24,-13,-39,-48,-4,10,6,17
15,38,-35,-88,-43,-9,3,12
-6,21,-26,6,18,5,-6,-16
-11,-104,36,-44,-6,-4,-11,1
34,-71,14,105,23,14,25,8
-24,14,15,35,6,-4,-26,-32
-15,-5,-20,-29,6,-1,2,-3
10,31,42,-34,10,5,-1,6
29,109,5,23,-2,5,10,14
-4,21,-5,-24,-24,-8,-6,1
-6,-67,-98,19,1,-4,7,1
-12,34,57,73,9,-1,-2,-16
3,-64,-75,-9,-6,3,12,5
6,76,-46,20,-20,-3,-8,4
15,-80,-47,-55,11,2,5,16
-41,-128,-31,-46,-14,-6,-5,-39
84,127,78,35,27,30,27,45
-20,-47,79,-31,-22,-31,-51,11
-80,-125,-91,48,-20,-14,-17,-80
9,62,-5,52,1,2,10,-6
-7,127,51,-42,15,-7,-15,-6
14,86,-42,58,17,5,8,13
4,70,-41,-60,-10,-2,-2,5
-12,-100,-2,-120,-15,-6,-1,-1
6,-3,-37,-18,-13,-2,-2,-1
30,89,23,59,9,3,4,6
-12,-86,24,15,2,-10,-10,4
-19,-3,14,-25,-13,-6,-9,-14
24,55,79,32,3,3,2,28
42,101,123,71,16,16,20,1
-71,-118,-39,11,-18,-16,-32,-31
29,96,-70,108,40,12,16,20
-44,-128,17,-9,-16,-16,10,-24
-6,7,-18,-128,-10,5,0,-12
7,31,2,-12,5,3,-5,26
14,16,33,-88,-18,3,15,19
-25,-128,-128,21,-3,-5,-9,-18
-8,16,2,51,1,-7,-10,-18
1,-21,2,17,-14,-6,-11,-2
12,-20,31,24,8,11,-1,10
-1,-8,9,68,18,-2,2,9
11,112,-40,-49,4,7,1,19
-21,-29,-3,-70,-23,-9,-15,-32
10,8,24,-5,18,0,8,8
14,123,-5,105,-5,-20,-11,-8
1,-25,-2,53,-2,2,-6,-2
-9,35,45,-128,-9,-1,2,4
15,33,-70,-26,-8,-7,-4,11
-69,-111,6,38,-6,-9,1,-26
16,21,57,85,26,7,-7,1
-27,-128,-128,-70,-23,-16,2,-17
11,6,-128,3,1,4,-2,-8
-2,5,75,-12,-11,-8,-1,9
6,43,-32,25,6,1,9,-13
-14,-128,-115,-31,-24,-19,-26,4
-9,18,33,127,16,15,13,-12
-12,-99,28,-92,-21,-14,-14,-14
24,21,-9,6,30,12,-5,7
12,-15,-40,-57,-14,5,7,21
2,25,48,-76,-11,-1,-5,5
-21,-48,4,-5,-1,6,2,3
-20,-103,-27,-5,-16,-16,-9,-1
-28,39,50,48,1,-9,-11,-42
-8,19,127,110,16,-5,-8,11
-10,-114,37,38,2,5,-13,-6
-12,-27,-128,-128,-31,-9,9,4
23,127,96,2,10,4,4,2
28,19,83,24,-2,8,8,17
-20,-32,5,47,-4,-21,-13,5
-12,-19,-13,-7,-7,-2,-11,-33
34,34,-24,0,-4,6,3,21
-11,43,1,-75,7,4,4,-15
-4,-98,-94,-8,6,3,5,6
-27,39,-40,8,-7,-10,-12,-22
-26,82,-50,-14,-23,-14,-14,-28
-7,46,-55,-49,12,12,3,27
-31,-128,-89,96,21,-6,14,-5
2,0,-2,-49,-20,-12,-8,-22
19,54,-10,-80,-13,1,-10,11
-6,92,1,52,25,10,25,-4
-10,-9,-99,-23,3,1,-2,2
-9,-98,2,37,-2,-11,-9,-6
-2,-71,9,125,7,-9,-6,-1
-1,-36,25,-93,-27,-5,-6,-18
6,28,-12,-86,-4,15,8,9
-2,-31,7,46,2,5,10,12
-26,-128,-27,48,2,-16,-25,-15
0,8,-19,3,12,4,6,-7
-2,16,-2,-9,-2,0,-2,-4
-7,85,127,101,10,-10,-16,5
3,-114,-107,-8,12,2,5,7
20,77,8,-128,-12,-6,-1,6
-24,-81,-4,-15,-12,-9,-8,-6
2,46,6,35,14,11,7,-5
0,87,62,-2,0,4,0,-13
29,40,86,5,5,8,2,38
-26,-25,-77,9,-9,-14,-19,-56
-11,-16,59,-7,-9,-9,-9,-10
12,17,-42,27,-5,3,4,18
2,-59,15,-17,8,4,-4,5
2,-13,29,9,-5,5,23,9
12,-27,-128,57,22,-1,-14,-12
20,86,77,1,0,3,22,11
-29,-27,1,-41,-13,-2,-6,12
-7,15,15,-89,-15,-4,1,-14
-20,-128,-45,5,-3,-9,-3,-16
2,36,26,84,32,4,0,6
8,-19,32,42,1,4,2,22
17,127,35,-83,-18,8,4,-37
-25,-74,17,51,7,-10,-16,-6
0,107,-53,4,5,-7,2,4
-9,-46,-26,8,-25,-4,-3,2
10,8,-3,-4,2,4,7,5
16,15,14,13,14,5,5,13
-10,6,90,32,-8,-11,-4,-3
-3,-30,-69,-23,-8,-4,-11,0
8,-6,13,19,17,14,18,6
9,68,54,-86,-7,0,-7,5
-21,-44,-37,-29,-17,-6,3,-17
15,54,85,-2,-7,-9,8,24
-8,-128,-18,59,9,-3,-19,-13
-25,-128,-128,-1,-5,0,-3,-27
-9,98,-27,-48,-20,-11,-9,6
8,71,70,12,3,0,2,18
3,20,-63,33,5,-2,-10,-23
8,17,39,53,4,9,1,11
0,-43,30,-128,-16,-2,-7,-3
-1,4,3,69,6,-2,4,-15
38,127,-4,2,7,3,5,13
-4,47,-43,-128,-22,6,22,16
17,127,62,116,18,10,-4,1
7,15,83,61,16,-7,-4,5
-26,-22,17,14,-29,-16,-15,-13
5,-5,-21,-38,20,3,-2,10
26,109,86,98,29,10,1,1
-28,-109,-128,-128,-41,-9,-11,-15
-23,5,-15,-38,-2,-2,1,-4
14,38,7,85,15,4,-4,1
-16,22,50,92,-1,-9,-13,-10
17,51,30,-128,-13,8,5,17
-39,41,29,-1,-26,-19,-19,-45
-7,-14,4,6,2,-2,-5,-22
8,-13,16,17,3,-3,3,19
1,49,-18,1,-10,-9,-12,-8
26,55,64,62,18,16,34,18
-2,-128,-62,10,18,11,9,10
-8,127,42,-56,-18,-10,-21,-19
-2,66,-36,2,-3,0,-7,-28
0,-55,30,-10,-9,-10,-18,10
3,19,-19,20,-1,6,4,-4
3,39,18,0,-19,-6,-14,-10
20,51,44,19,16,10,7,12
-21,-63,81,2,5,-8,-5,-4
0,7,-60,-48,-3,-10,-3,-4
-8,37,27,-89,-28,-1,3,0
-10,-71,0,4,-6,-8,5,-9
5,-29,70,20,9,5,0,5
0,-21,-46,63,-11,-10,1,-5
-1,-32,21,-6,-4,-6,-10,-11
-27,43,-7,-99,-11,2,3,10
16,6,-54,41,14,13,6,18
-62,-128,22,-2,-6,-13,-10,-56
28,33,13,-40,-14,1,13,32
14,23,64,24,0,-2,9,6
12,45,20,57,7,-4,-8,2
3,6,-46,-15,-3,1,-12,-3
-2,-128,-1,4,2,0,15,2
-20,18,35,97,9,7,-1,-10
-13,-10,5,-77,-16,-7,9,-14
17,63,32,-78,-24,-3,-5,-6
34,52,-92,8,11,12,12,20
-5,-27,127,15,-2,-8,-8,10
-15,-57,-81,3,1,-4,-14,-17
10,70,80,56,7,3,8,-29
-2,-69,-28,41,-1,-15,-17,41
-16,54,20,4,11,7,3,6
6,-34,-48,-85,-4,-7,7,9
7,1,14,-31,3,3,-3,14
2,-15,2,-25,-24,-11,-4,7
3,12,63,127,37,7,-8,-17
-6,-38,-13,-82,-5,8,-2,-3
-11,-44,-41,-80,-25,-6,-8,-11
11,89,57,-73,-9,-5,7,-3
-14,11,63,11,8,-3,-2,-14
-6,-75,16,39,1,-5,-1,-7
1,-20,3,74,7,-6,-11,-4
-7,-62,-51,8,-14,-8,-10,-7
8,-27,4,-41,-6,5,-6,6
-6,-19,-101,-3,0,9,25,-13
-20,-29,24,1,-12,-15,-21,-24
-7,22,21,-64,-19,-2,-9,-4
31,106,-5,32,14,2,8,9
-2,-78,91,51,-15,-16,-9,6
5,35,2,-110,-9,9,18,3
1,2,-56,-30,-4,-5,5,4
-8,59,87,58,10,-4,-11,-15
7,-7,-128,44,3,-5,-13,29
-22,-11,-15,-91,-25,1,7,-38
-3,-35,-53,-47,-23,-5,-12,-11
2,57,39,110,27,-1,2,1
13,11,-13,-47,0,-3,4,18
-24,4,38,-8,-13,-12,-13,-17
16,3,17,25,26,9,5,0
17,111,24,97,3,-7,4,3
-11,31,32,49,-6,-12,-5,-24
-13,-49,-68,-108,-18,-1,-8,-2
-12,96,10,-66,-23,-6,-2,2
28,127,87,33,14,10,7,10
8,-72,-50,57,5,4,7,16
-45,-20,-63,-47,-22,-21,-6,-23
-9,4,-21,-6,-10,-4,-14,-13
20,23,31,97,17,4,2,10
-7,-128,-27,-63,-7,-3,-8,2
17,13,-20,-96,-2,11,15,-4
-5,19,9,20,-2,-9,5,-2
4,20,16,26,2,1,-8,-1
25,53,21,86,19,7,11,15
-30,-128,-128,-8,-10,-9,-19,-14
-10,-14,-49,-44,1,-3,-3,-10
7,26,-15,-58,-20,-5,10,4
32,2,-58,-1,10,12,2,6
2,35,127,57,11,3,4,0
-34,-4,-1,-13,-1,-2,-19,-13
8,0,-2,-20,9,5,6,9
18,84,33,33,-4,0,3,-2
-7,-16,-32,24,0,-1,-5,6
-13,-21,8,-85,-23,-9,-7,-24
1,-4,-10,-94,-15,-2,-11,-6
10,30,88,64,10,6,4,6
12,75,-44,-7,17,9,5,15
-8,-52,-24,44,14,-9,-11,-13
-13,-6,-12,30,-5,-6,0,-9
-14,-128,-120,-120,-33,-4,-9,-8
30,65,-9,31,18,11,15,26
-30,-48,-81,13,-7,-2,0,-5
30,65,-9,31,18,11,15,26
-30,-48,-81,13,-7,-2,0,-5
9,2,6,1,-8,-4,-6,0
44,2,109,45,18,11,27,26
