Channel_1,Channel_2,Channel_3,Channel_4,Channel_5,Channel_6,Channel_7,Channel_8
30,20,25,-44,-49,-13,6,2
-7,-16,8,53,59,15,-27,-72
12,38,5,-128,-32,-12,-18,8
-4,-46,-1,127,-3,-12,3,19
13,28,2,-128,16,9,13,18
-2,5,20,1,7,-2,1,7
4,7,-20,-23,-11,4,6,10
-9,-4,-20,-43,-19,-3,2,12
14,9,16,-54,-55,-17,2,-5
-24,-17,-11,87,36,4,7,21
29,-42,-61,-19,2,-4,-5,3
-11,28,6,2,-3,-4,-17,-29
7,3,-4,127,49,7,4,5
-65,-10,-16,-57,85,25,5,-15
15,-3,32,-72,-10,2,9,14
98,61,-24,13,-19,-3,3,32
-6,-8,-47,3,6,-1,-9,-12
-79,-105,-13,-31,-24,-17,-35,-69
5,-38,18,-2,-20,-17,-7,5
-6,-30,24,8,-8,-5,-5,-28
9,28,22,1,-18,-4,-1,9
8,24,-1,13,-22,-5,6,32
8,4,-3,16,-12,-3,-20,-10
38,11,13,-13,-2,5,80,85
-10,-27,-9,-5,0,-1,10,-2
-23,-42,-7,-1,-8,-3,-29,-45
2,17,-10,-5,-6,-6,-21,10
-12,36,32,-9,-44,-9,-13,-19
-25,-26,5,-109,-17,-2,3,7
30,-39,-22,65,6,3,8,26
-38,12,-5,4,-9,4,7,-13
-7,5,9,-8,-47,-15,-17,-45
1,8,-5,91,51,10,-9,-4
5,3,-4,-36,1,-3,5,7
6,0,8,23,-11,-4,16,49
5,14,-8,-62,-7,6,10,20
-20,-37,-36,8,29,5,6,5
-7,-8,-12,-9,2,4,1,2
11,37,17,-16,-7,0,-9,0
1,9,12,-1,-2,2,3,14
2,6,-3,0,-5,1,7,14
-1,-2,-5,0,-2,-1,6,11
6,6,-1,0,-1,4,14,17
-14,-6,2,2,-12,-4,-13,-24
127,-43,-44,-128,22,-16,-78,-128
-128,-117,-23,-51,-31,-36,-78,-128
4,-31,12,-17,-23,-15,-4,37
8,34,15,-2,-17,0,13,37
17,22,23,8,-13,3,18,43
1,15,-8,-68,-29,-9,10,28
0,23,17,2,-8,-6,-2,-8
-4,-23,-30,-6,-7,-7,-6,-10
-7,3,4,-13,-32,-4,3,18
7,52,43,60,42,23,74,96
0,-6,-2,40,29,1,-2,-41
49,-53,-88,-117,-37,-13,-73,-128
-55,-41,-13,-5,-16,-11,-12,-8
-16,-9,13,127,57,10,15,59
-8,-2,-1,59,-5,-8,0,-31
-33,6,5,-94,1,-1,-5,-10
7,16,5,-48,-12,1,12,35
-3,33,6,13,-8,-3,7,8
-6,9,-15,-2,10,1,-10,-26
6,-10,19,0,-5,3,-4,-10
24,2,-7,1,2,1,7,11
11,22,14,-1,2,4,9,9
-29,1,4,-4,-5,-1,-2,4
19,-33,-36,-12,-30,-7,7,18
-43,6,35,-18,22,1,10,36
13,46,15,-128,-100,-29,-31,-22
16,-25,-34,127,127,32,-7,-48
-26,-47,11,-37,12,7,9,-54
-37,3,-106,-47,-18,-7,-1,8
18,-33,14,-34,-34,-16,-25,-3
-2,27,31,-4,-11,-3,32,30
25,-13,-23,-56,-33,-13,-5,11
7,-4,28,91,-81,-25,-7,4
13,-3,-23,42,108,26,9,6
-13,3,43,-15,9,2,1,3
-17,23,-16,-16,-12,-3,-1,-20
0,4,-27,-51,-25,-8,3,7
37,8,-5,56,10,1,1,9
-5,-57,11,9,-14,-3,-14,-12
-37,3,9,8,-12,-4,-3,-11
-21,-1,6,35,23,6,31,67
-27,-4,-7,-20,8,1,-15,-53
40,35,9,-58,-33,-10,-24,-56
102,15,9,101,21,-20,-27,-40
-42,-58,-28,-12,2,-1,-35,-34
-33,-42,0,-3,-3,3,7,3
11,-29,-26,-2,-3,7,18,29
22,29,19,39,-15,1,17,42
23,17,-5,-128,-27,-5,2,19
-11,30,-33,127,44,7,0,12
-4,-32,1,-54,17,3,63,6
-19,10,12,-14,-11,-9,-23,-10
0,12,2,0,-25,-6,-8,-18
41,27,20,-89,-28,-9,-5,8
-2,-34,-15,94,19,1,-14,-72
-49,-23,-22,0,39,10,5,27
-17,4,2,2,-3,2,0,5
20,13,45,3,-64,-12,-9,-33
36,2,-36,35,98,28,9,21
-12,19,-20,-32,-10,-3,1,-1
-41,-17,6,-10,-16,-11,-4,7
-3,8,11,-44,-28,4,20,24
-19,16,-72,7,-20,-7,3,22
10,-58,16,105,79,6,-29,-33
32,-10,18,-36,-17,-15,-18,-20
-77,-56,-24,-12,-12,-8,0,-1
0,24,2,-1,-4,7,14,10
-1,22,-5,-39,-6,4,12,31
19,5,7,56,-2,3,-1,5
26,11,4,-9,7,-4,-15,-31
-3,-15,-6,-11,-8,-5,-24,-49
-44,-2,2,4,-11,-5,1,13
-11,0,-1,-36,8,4,-2,-5
49,6,26,90,-12,1,36,40
29,20,-41,-24,47,16,11,-16
-47,-33,-23,2,-2,4,30,19
9,-18,31,12,-28,-19,-31,-6
7,20,0,-26,-6,-6,-15,-43
-8,-58,-53,38,-20,-5,1,27
1,11,-4,21,26,5,7,-14
-32,-28,21,-16,11,2,-4,-16
10,17,8,-8,-8,-6,1,10
8,15,2,-2,-7,-1,1,18
-6,2,2,-9,-15,-8,-14,-14
-32,30,6,-128,-92,-19,-6,-34
5,11,5,127,91,31,35,36
87,-66,-28,-61,58,32,5,-9
27,-35,-46,-78,-34,-17,-37,-31
-67,7,10,-39,-37,-18,-22,-33
-6,9,8,-5,-16,-9,-6,11
-1,10,7,-6,-11,-5,40,26
1,6,0,4,-8,-2,5,15
3,13,7,5,1,-2,4,7
2,8,17,8,2,-1,-3,3
3,-2,3,8,3,-6,-2,-5
2,-3,-3,5,8,1,2,-1
-1,8,10,8,14,8,2,3
4,3,-4,-43,-38,-4,-11,12
-28,-26,13,81,-69,-6,9,48
2,11,1,31,127,62,101,79
12,51,-44,-52,-12,-8,-48,-128
94,-12,4,-25,-21,-20,-57,-39
-112,-71,-15,-21,-38,-26,-27,-83
-23,-61,-39,-36,-21,-1,0,-4
-20,25,26,14,-15,-6,10,34
12,18,2,14,9,4,19,9
22,22,9,-11,-12,-6,-7,-22
12,25,18,58,9,3,7,20
5,10,-2,-30,22,8,10,16
-2,1,-2,4,8,12,10,11
0,-2,-6,7,1,-2,0,0
6,-1,-3,2,2,0,-1,3
-4,-1,1,4,-1,-5,-1,-2
-3,-4,-1,1,-4,-4,-21,-5
-3,-7,-5,2,-2,-4,7,-4
-1,-4,-8,2,0,-1,-1,0
-4,-1,0,0,1,-3,-4,-4
-4,-1,1,-2,-5,-1,-6,-5
0,0,-2,-5,-8,-4,-7,-6
0,-3,2,-83,-47,-15,-8,4
6,10,10,69,46,26,5,4
-4,-8,-8,91,78,29,39,29
-10,28,31,10,-32,-6,-5,-31
39,4,-31,-62,49,0,-29,-33
-3,21,22,-42,-38,-11,-1,78
-6,-43,-80,47,30,19,24,10
-35,-37,-17,-55,-1,-10,-47,-128
34,45,-2,-20,-30,-23,-39,-47
3,-35,49,-14,-24,-14,-18,-25
-26,-36,-32,20,2,4,16,37
15,23,6,10,1,3,16,36
-8,18,19,26,-12,2,15,31
36,37,13,37,63,30,25,30
-47,-6,9,40,12,3,-12,-11
30,2,-22,-8,-8,1,40,17
0,-21,-11,-21,-11,-6,-4,-6
-3,2,2,-16,-13,-11,-6,-1
-7,-8,-24,-11,-10,-7,-5,-15
-4,-4,21,-13,-12,-1,-3,-4
-3,-10,3,28,-11,6,15,23
10,24,-30,31,21,8,2,21
28,2,-4,-23,33,4,-14,-61
-24,-16,-52,18,15,-3,-10,-32
9,2,16,27,-6,-1,2,28
-11,35,26,-35,-18,-11,-21,0
4,-44,-10,-5,1,-2,-1,-44
-10,-28,-6,-8,-12,-5,1,5
9,19,17,-49,-33,-4,-4,10
-9,18,-4,96,35,-4,1,-4
10,-4,-12,-15,11,6,10,12
5,-1,0,-2,-4,-1,-5,3
5,-3,-4,-3,-3,-4,3,7
2,6,-3,0,-8,-5,1,4
0,5,4,-2,-7,-4,-6,-1
2,3,4,-1,-6,-4,-5,4
6,-2,7,0,0,-3,2,4
-26,2,-21,-83,-35,-6,16,58
-16,9,28,123,-39,15,7,23
66,10,-25,-53,125,15,-53,-94
37,-11,34,-84,-16,-13,-38,-92
-43,-14,-78,1,-27,-15,-13,-4
-35,-70,-29,0,-38,-11,3,17
-121,0,4,-19,11,-2,1,-40
23,-27,-12,4,11,3,9,28
72,-10,6,-22,-9,-3,3,30
-37,4,11,11,-6,-3,2,5
-4,25,-2,-11,-54,-16,-2,-1
0,3,-28,10,39,10,7,3
1,28,35,56,16,12,3,-3
10,-4,-11,-25,11,4,1,5
-2,-21,-7,-9,-8,-8,-6,-6
-6,-8,1,-7,-13,-11,-4,-1
-8,3,9,-4,-4,1,-1,-6
-2,2,-7,0,-4,-4,14,43
23,2,7,-27,-11,2,10,60
38,4,-16,84,34,6,12,-45
-45,46,15,-5,-9,-7,-66,-98
58,-16,-8,-15,-19,-16,-23,-2
-95,-93,-29,1,20,3,-1,-20
-19,15,-4,-16,-6,-2,0,-18
11,20,14,16,0,1,9,25
5,5,19,-65,-41,-2,14,27
6,66,25,123,35,4,10,18
-7,14,-5,45,37,13,-6,-6
42,-22,-46,-57,-9,-4,-7,0
-9,-49,-9,-22,14,-8,-3,6
-8,-12,-10,-2,-16,-4,13,28
-10,0,1,-7,-11,3,3,-32
-23,7,26,-89,-33,-12,-30,-54
-9,9,2,115,-13,-10,-5,5
35,-10,-17,64,43,16,-3,-10
-1,7,-3,-99,-19,-8,-17,18
23,3,-2,-50,-40,-3,3,14
29,55,-12,37,62,29,40,33
-17,-84,-7,-11,-11,-2,5,4
-77,-47,1,-13,-18,-12,-8,-2
-3,18,17,-5,-16,-8,-37,-40
33,0,0,-4,-11,-1,13,22
43,26,-3,-9,-16,-15,-8,29
21,-33,18,0,3,-1,1,-7
-18,1,-4,-2,-5,-1,-10,-33
-6,26,-10,3,0,2,6,34
-18,-28,-1,3,2,0,10,25
26,4,-5,-3,1,-2,-23,-70
-21,4,36,3,2,-5,-11,-20
-37,-44,-68,-18,-7,-5,-2,3
4,6,14,-21,-6,2,-1,10
7,17,6,41,5,5,17,22
25,18,1,-111,-45,-15,3,26
-64,11,7,63,-38,-21,-14,45
-69,-44,-24,123,120,24,22,-33
16,-24,18,-54,2,-6,-32,-65
9,-19,-8,-21,-17,-12,-15,2
3,24,6,-14,-22,-8,-2,6
5,22,25,-22,-29,-8,3,25
-3,-22,-41,21,-17,0,19,53
-19,-17,2,-33,23,13,19,9
1,27,26,32,-9,-7,-22,-52
13,-23,11,-27,-18,-10,-32,-37
-41,-4,-13,-27,-10,-4,-4,4
-14,14,11,109,-17,-2,3,16
17,11,-12,-94,55,16,10,17
3,-19,8,-56,-13,0,8,14
1,12,-6,33,-10,3,-8,5
30,44,8,9,4,-2,22,21
-36,-60,-36,-2,-8,-9,-6,-15
-27,0,8,-3,-1,-8,-14,-20
16,5,-6,2,-4,-2,-4,0
-13,14,2,5,-1,6,8,-11
9,5,-4,7,0,1,-4,20
41,-4,18,10,6,-7,13,52
-2,-18,-26,-13,-8,-5,8,31
-45,34,14,-61,-35,-12,-29,-122
-29,-1,-6,79,42,18,-24,-72
8,-35,-12,-28,1,-12,-21,5
25,-13,22,-4,1,-5,3,23
-30,20,-14,-14,-19,-3,2,-14
-5,1,-29,-16,2,2,14,36
0,0,19,-23,-47,-5,7,12
-16,7,-7,26,49,0,-11,-31
22,-15,14,-21,7,2,-5,2
-33,-9,-7,3,-2,1,-2,5
0,2,4,-11,-19,-2,0,7
-2,-11,11,-95,-54,-15,-6,-1
22,-17,-4,118,60,9,7,7
-18,-12,14,-39,11,9,-5,-1
-13,20,-16,18,-8,-8,20,25
2,11,7,30,2,-4,7,24
-4,-63,-21,-47,-15,-2,-3,-46
34,-26,-14,36,-2,5,-4,-14
-27,17,4,17,-12,-10,-17,0
-18,40,23,-33,-10,-19,-52,-61
30,-24,-74,-19,-6,-8,-28,0
-18,-17,-5,34,-15,0,25,42
9,25,31,-38,-4,4,14,19
-15,11,-4,-47,-1,7,15,-23
33,7,12,58,27,10,13,18
27,-20,-27,21,7,5,-14,-12
-14,-17,-7,-33,-2,-4,-4,16
27,20,7,69,-19,-18,2,6
-81,-38,4,-109,-9,-11,-6,-20
-8,0,-20,-12,-8,-2,-7,5
5,24,7,7,-31,-7,-2,2
1,-47,-31,35,29,6,5,-13
3,15,-10,3,23,9,16,4
5,6,9,-77,-48,-17,0,30
24,30,17,109,44,14,-15,-13
-4,-30,-21,-40,-2,0,-39,-67
-1,-8,-2,-8,-11,-11,38,-4
-8,-15,-26,-58,-84,-25,-5,12
-38,-20,-11,94,96,17,2,18
39,8,-22,-35,-3,-1,0,-16
19,3,3,-17,-17,-2,-10,-1
-10,20,7,8,-11,0,4,9
-11,-10,6,-28,-6,-5,0,3
-4,12,-23,0,-2,-4,0,1
-4,3,-4,1,-2,2,2,1
-3,0,0,-1,-4,-4,2,1
-8,7,36,-35,-93,-16,22,71
-2,-2,-13,127,127,33,40,39
5,-39,-52,-20,-3,-30,-71,-128
42,63,8,-19,-11,-6,-44,-62
-71,-46,0,-37,-21,-9,-11,32
-3,-104,-38,22,-24,-5,8,22
-1,11,2,29,2,1,6,10
-1,13,10,-9,11,1,7,-4
8,43,14,-28,-17,-11,-12,-41
4,2,0,21,-1,1,-1,-36
4,3,-1,17,-7,0,-14,17
6,3,1,-57,9,-1,12,27
3,8,-4,43,0,-5,9,19
-3,-2,1,-6,0,1,-4,7
2,-10,8,-3,1,2,-14,-3
-10,-2,-4,-84,-21,-3,21,12
-14,6,11,26,-33,0,19,31
17,33,23,127,45,18,2,-11
51,-41,-70,-44,44,-14,-58,-71
44,15,16,-35,-5,3,-4,24
-73,-62,-41,-30,-27,-3,-3,-20
-10,31,-14,-5,-12,-7,5,3
-10,-10,10,7,-6,-6,-2,-2
3,-8,18,-45,-25,-5,2,24
5,18,12,117,9,1,2,-7
4,12,2,-38,16,10,3,-8
-5,12,9,-15,-31,-4,3,7
0,8,-5,51,63,14,9,12
39,13,0,-34,-13,-5,-3,12
-3,-2,6,-55,-19,-10,-9,11
-14,-8,-12,41,-5,-1,-8,-54
1,0,13,-12,3,6,-13,-2
-5,10,1,-104,-19,2,26,31
-29,-4,38,127,-59,-21,-11,14
20,32,-14,-90,96,19,-4,-2
72,21,23,-30,-7,-3,-14,12
-83,-63,-40,-21,-10,5,2,9
-53,-24,-10,-52,-38,-19,-22,-77
-14,-12,-1,-42,-32,-16,-30,-37
-25,-12,6,108,20,9,-5,28
17,19,10,3,-1,4,15,29
-4,18,3,-6,1,4,12,34
18,10,10,-7,7,0,10,22
70,24,26,-5,-7,0,1,-30
-47,-39,-44,3,-4,0,-9,-7
-9,-7,5,-2,0,-1,-2,1
-1,-3,-1,1,1,-1,0,6
-10,33,9,-84,-44,-14,0,8
8,14,33,127,24,11,3,26
31,-38,9,12,45,22,12,16
0,-46,-99,-28,7,-5,-32,-68
-30,0,20,-41,-17,-15,-19,-27
-15,-5,26,-79,-51,-16,-7,-26
8,4,8,69,37,7,7,15
2,6,-36,74,19,4,0,12
6,33,8,-62,-7,3,5,5
-1,-31,-5,-31,-47,-11,-2,1
12,-9,-16,49,27,7,8,10
-10,13,10,-16,11,7,3,7
30,21,10,-12,-4,-5,-1,-11
3,-33,-8,-8,-9,-7,-3,-1
-1,-17,-52,-15,-10,-4,-17,20
-12,12,18,15,-11,3,29,37
26,34,9,-31,7,6,8,-64
28,-37,-2,-2,4,-11,-40,-33
-70,-25,-13,-2,5,-8,-29,-1
-11,24,-2,12,0,1,-17,-35
13,-19,-32,-6,1,-2,5,3
30,-2,17,-2,-11,-3,16,28
-80,3,-5,-58,-20,0,-1,-16
3,-3,13,66,10,0,-13,7
-28,-9,9,-13,9,-8,0,25
15,9,-15,-61,-16,7,55,37
58,43,-8,124,-4,-13,-15,-23
-8,-37,-8,-113,-6,-17,-36,-37
-29,-51,19,-26,-21,-11,-27,-39
5,20,3,28,-8,-7,-1,3
-26,7,19,-22,19,13,12,5
12,25,10,-2,11,15,9,20
9,-22,-32,36,-9,2,0,9
-1,-39,1,-31,5,-5,-2,4
10,16,-29,24,14,6,4,9
-2,29,2,-26,-16,0,4,26
24,-1,27,-2,-6,0,-15,-19
-40,-46,-21,25,-37,-11,11,-3
11,31,-10,-77,-23,-12,-6,-2
-76,5,-28,73,115,29,12,1
39,-34,-14,-20,-1,1,-4,1
30,37,15,-14,-16,-2,-8,-2
-10,-2,8,-5,-15,-10,-10,-32
-3,-22,-12,-4,-7,-4,-7,-2
-10,-10,1,-77,-36,-4,9,25
-6,-16,-12,126,44,-5,28,16
10,38,-4,-26,-2,-6,-9,-11
-34,-34,4,0,-4,0,-3,-24
-31,-21,8,15,2,0,-16,-18
43,24,4,-1,5,2,0,14
-12,17,32,9,2,5,7,-31
-1,1,-51,7,10,4,-5,7
28,58,-30,-12,-30,-4,-3,15
-37,-1,25,47,40,13,15,11
-11,-59,6,-32,3,-3,-12,4
12,27,9,-12,-2,-2,25,32
-19,-3,43,-37,-15,5,-4,-30
2,-1,-58,46,-10,-13,-22,-43
30,-51,-48,17,0,0,-6,-16
0,29,39,17,4,7,14,10
-23,-29,28,-78,-23,-5,-1,-8
0,-37,-21,95,73,8,-15,-13
-22,42,-29,-14,-11,-6,-3,13
15,10,6,-9,-10,0,8,15
-27,-46,-25,-25,-20,-5,-1,-3
-3,-3,25,-4,-24,1,9,9
16,40,-19,25,26,14,18,30
36,37,26,-69,-9,-9,-20,9
-76,-41,-2,61,7,-11,-26,-65
-1,-45,-6,-32,-11,-9,-2,1
-5,-5,-7,-2,-38,-14,-2,-34
-4,-5,-14,-26,9,2,6,6
2,9,0,13,37,11,-14,7
-2,26,13,-38,-47,-3,16,49
-8,50,32,122,50,11,19,-6
21,-41,-40,-52,0,-3,-44,-91
-52,-25,17,-13,-12,-4,-18,-20
-11,14,-9,-10,-17,-11,-8,6
50,1,34,-3,-9,-3,58,65
-24,-10,-43,-4,-7,-7,3,52
-14,2,-8,-5,-9,-3,-34,-63
1,12,11,-21,-13,-4,-18,-65
-84,23,10,69,15,6,13,32
9,0,18,-20,8,0,11,19
-2,-36,-22,-18,-4,3,-6,-23
-5,1,5,-3,-4,-9,-11,1
-7,7,4,-51,-25,-4,9,18
4,37,-3,11,-18,-12,7,18
31,-72,-28,46,18,0,2,0
3,13,3,-46,6,-3,-15,-9
-25,4,13,15,-1,-2,-7,-56
-4,7,13,-17,-15,-4,2,4
-3,24,6,29,-5,-6,-2,2
-5,-15,-15,-61,-20,-2,2,4
17,25,20,-13,-22,-11,0,4
4,3,-16,20,-7,-2,1,12
-3,-28,27,46,65,18,9,17
-38,-2,-5,-85,-28,-4,1,8
25,16,-12,101,22,-1,-11,-7
11,2,11,-29,-16,-10,-21,-30
0,38,5,-27,-21,-2,49,-27
-22,-62,-37,75,-17,-17,-27,-32
-24,-58,-4,-85,17,0,-16,7
7,14,25,-7,-8,-3,-1,18
10,8,11,2,-2,-1,2,-25
34,17,9,5,1,2,6,16
-12,5,0,1,0,7,12,18
7,38,-5,9,-8,4,11,34
8,-64,-3,-11,2,-9,-19,-27
-34,-8,-9,-11,-5,-6,-10,-28
-8,39,12,7,-2,1,-4,9
9,-6,-16,4,-2,1,-26,-43
3,-37,-1,2,1,0,48,14
-23,-55,-7,-7,-8,-7,-13,-4
-81,12,0,-1,-4,-5,-11,-7
8,22,0,-8,-2,4,3,15
11,13,10,11,-20,-5,1,11
12,4,-6,-8,-12,-1,0,2
8,1,-1,0,-1,1,5,8
3,18,34,4,30,5,2,8
2,-55,-102,37,-22,-10,-9,-10
-56,23,15,6,-52,-20,-12,-23
11,5,7,127,127,35,32,51
35,5,-56,-51,11,14,17,23
-31,-128,-14,-36,-32,-14,-43,-111
-43,-14,31,-21,-32,-25,-32,-47
2,3,-12,-7,-22,-9,2,4
8,25,7,13,-13,-6,5,20
-5,19,12,-58,-24,-11,-3,21
-1,18,-9,19,11,6,1,-9
7,-3,43,29,13,10,10,11
-1,10,22,-13,-2,1,3,13
11,-10,-35,-25,-11,-8,8,20
-4,21,-32,29,-43,-6,-12,6
3,23,0,-20,93,34,18,12
-8,-13,35,-9,-2,-10,-11,-9
58,2,16,-25,-23,-22,-24,-36
-56,-65,-13,-10,-15,-7,-23,-48
-16,-28,6,1,-9,-10,-10,9
7,-4,-1,4,-4,-2,14,44
-15,19,3,2,-3,7,13,20
4,24,11,-28,1,3,2,-24
25,4,-32,55,1,-7,-10,30
13,2,14,-27,-4,-9,-20,-60
-3,-4,-2,-40,-4,-2,-13,-19
-10,-8,-30,3,5,1,-4,11
1,6,16,-1,-4,1,4,17
1,3,13,-6,-4,1,6,11
0,-14,-20,-1,5,0,3,4
-1,0,20,-5,-2,1,3,5
-3,6,14,1,-6,0,1,-1
-8,-26,-15,-17,-5,-1,-1,-3
-6,16,-20,-64,-40,-8,14,44
13,-1,-17,20,-46,-6,19,22
41,16,1,127,84,8,-35,-81
19,31,54,-74,46,11,-3,22
-33,-74,3,-25,19,-4,-11,-33
-17,-34,-80,-46,-31,-6,-14,-13
-38,-15,7,-17,-24,-6,-10,-4
2,30,46,-7,-19,-3,-2,-20
6,19,18,5,-25,-6,5,15
11,14,17,14,7,5,2,13
7,17,4,6,0,2,2,15
9,23,2,-59,-16,-1,7,10
6,-32,-22,72,30,-2,20,4
-10,-11,15,-8,0,2,-13,-16
-11,3,15,11,2,-1,-3,-1
-1,-4,-12,13,-17,0,0,4
12,13,2,-15,-24,0,18,49
19,25,-23,22,105,24,12,9
14,-27,-8,-22,-15,-16,-26,-67
-59,-97,-26,-13,-22,-8,-6,15
37,13,9,2,-8,2,12,-5
64,25,6,-1,-10,-10,-8,-13
-73,-33,2,-10,-13,-12,-21,-41
-3,18,-9,1,-9,-1,-17,-19
16,-12,-11,-5,-4,-1,5,18
23,16,-9,7,-3,0,-4,17
0,-9,10,31,11,3,40,23
-12,-6,2,-109,-11,5,11,12
-9,6,12,49,12,4,2,5
6,23,-11,78,51,12,-4,7
-2,-29,-16,-15,-15,-9,-12,-12
-18,-7,-6,-15,-15,-6,-8,-15
3,-15,8,-17,-7,-4,0,8
7,0,4,-16,-13,-5,-8,-4
-14,20,14,-42,-100,-29,-9,3
7,9,8,-17,92,19,15,8
-76,-4,51,127,76,11,2,6
10,-6,-54,-93,11,7,6,9
27,39,-26,-21,-25,-9,-12,-59
-5,-41,9,-14,-32,-5,-14,-19
-13,-12,3,27,-17,-5,-3,8
5,-26,-27,7,29,-3,-16,10
-13,-10,15,-4,-16,-9,-8,-43
-2,28,18,3,-6,-2,10,17
5,-42,-2,-1,-7,1,6,21
-6,6,-7,-1,-7,-8,-2,-2
13,16,-2,1,-1,5,6,11
2,31,7,15,-15,1,17,46
16,-19,-4,-7,11,-15,23,-2
19,5,1,-7,-2,-8,-60,-123
-13,17,-1,2,-1,-2,-13,4
10,-12,-7,3,6,1,14,19
-34,16,13,-13,-6,1,14,15
30,-25,-3,-46,-22,-2,-2,1
-42,-12,-4,11,-36,-13,-12,-12
22,-6,0,79,39,9,10,18
15,14,2,-17,20,6,10,7
-3,-34,8,-19,-13,-1,-7,-5
-6,36,-35,-24,-6,0,-12,0
-45,-21,31,-6,-48,-12,-7,-30
-8,48,21,-27,-45,-3,19,29
77,9,-28,127,127,7,-5,10
-46,-26,-18,-101,-11,4,-16,-44
-45,-2,14,-38,-34,-18,-16,-3
-15,2,26,-31,-35,-9,-3,1
-1,12,-33,24,-8,-5,3,5
10,12,40,44,30,12,14,27
6,-43,-78,10,-4,6,4,27
-9,12,18,19,-7,-4,-9,-64
-5,-1,18,-15,-1,-3,8,1
-23,-11,-13,4,4,1,11,19
14,17,17,27,4,5,-5,0
-5,5,15,-3,2,-4,-17,-17
47,-17,-4,-6,-2,-8,-14,-6
6,0,-11,0,-3,-2,-6,2
-13,6,-8,-22,-7,4,30,27
49,11,10,-13,-21,0,17,28
-82,-51,-21,80,25,-7,-14,-7
-3,15,23,12,9,2,-13,-2
-9,-2,7,-34,-11,9,5,10
16,42,4,23,-16,-8,-13,-7
17,15,-27,42,17,-4,0,-17
19,-6,36,-32,7,5,-4,-5
-37,-71,-77,15,-37,-9,-7,0
-18,20,-20,22,42,9,0,6
-24,26,1,-21,-6,-2,6,9
9,-25,32,-25,-78,-13,3,24
52,36,-38,102,99,12,8,-1
-22,10,-1,-10,-13,-13,-23,-61
-15,-15,14,-31,-15,-6,-20,-10
14,27,-21,-27,-21,-7,3,15
15,4,23,11,-5,0,9,31
-16,-27,-51,9,1,0,5,18
-17,-19,-8,-33,2,2,-2,-20
4,-28,-6,8,-2,-5,-18,-4
-5,9,11,-8,-13,-6,1,18
-2,9,16,-39,-20,-8,-4,-35
0,23,3,116,20,4,4,6
-18,-15,-38,-68,-7,2,-1,-13
29,-2,-5,12,15,4,-7,28
58,-11,4,-10,-22,-6,9,-14
-25,-37,16,14,-2,-10,-22,22
-1,48,-1,-10,-6,-5,-6,-27
34,-4,-1,21,-12,-4,8,-4
-59,27,22,9,26,8,-4,-6
-6,-34,-11,-9,-5,-4,-13,-42
34,10,-18,-8,-2,-1,4,14
-43,-66,-6,-46,-14,-2,9,9
-9,-7,-7,45,-2,9,13,35
15,26,12,-4,1,-2,5,24
2,-9,16,-16,-43,-19,-30,-71
21,14,23,-73,42,8,-8,-19
42,-12,-69,57,24,14,7,18
-32,2,-10,8,-6,-1,4,13
-1,42,35,-52,-19,-9,2,6
-4,-43,16,-12,-22,-8,1,9
-7,1,8,-13,-41,-4,8,16
3,25,-10,127,17,-2,14,38
20,-4,-5,-115,61,21,10,-9
47,-3,-15,-21,-10,-19,-49,-77
-55,14,37,-8,-14,-8,-26,-22
0,-19,-8,-15,-14,1,3,5
1,11,-34,-14,-10,-3,-2,9
13,-17,-7,-15,-5,-2,46,49
2,9,-6,9,-33,-4,12,25
26,-23,-9,36,49,12,5,-18
11,0,2,6,2,-3,-23,-14
-7,-21,9,-22,-7,-5,30,-26
-29,10,-6,-14,-14,-12,-17,-11
-11,11,17,-5,-6,1,-12,-17
-8,1,-3,0,-3,-3,-4,-9
34,26,-5,-2,-9,-6,7,24
-13,13,10,-38,-21,0,1,23
15,7,-25,127,22,0,7,7
-11,-19,-9,-63,20,9,-1,-26
14,-16,7,-17,5,-5,-36,-40
-23,-5,2,-60,-24,-6,3,22
-5,-16,11,57,-25,-2,12,12
12,7,61,6,50,4,4,-2
-15,-32,-126,32,7,0,-2,0
1,1,-20,47,22,1,-3,-11
0,19,14,-52,-35,-8,3,19
-1,12,25,-22,-11,-6,1,32
9,-9,-35,2,38,9,-4,-16
25,26,51,-6,10,11,-7,-74
-68,-40,-39,-11,-12,-4,-2,-17
11,-26,-12,-13,-20,-13,5,19
15,11,7,-1,-12,-8,-1,11
-3,6,-12,-6,-7,-1,-8,-5
-8,0,5,6,1,-6,-2,11
21,43,14,-73,-52,-12,-10,28
4,-13,-25,98,60,14,24,40
2,-45,16,-26,6,-4,-7,-54
-99,-12,-1,3,-6,-10,-48,-63
13,-31,-16,-49,-11,-11,-8,1
-4,-33,-31,-27,-56,-12,4,33
-7,15,15,96,42,8,3,40
17,11,-5,-57,17,8,-23,-56
-40,-7,8,-7,7,0,23,-30
25,12,-2,22,-1,-1,5,37
8,-22,-7,-68,-12,-2,5,10
-20,10,-11,-13,-14,-8,-15,-28
4,-11,13,-22,-5,1,-4,-3
-3,3,11,-78,-17,-1,18,45
-7,-12,11,127,-6,-5,4,2
-70,-11,-13,-41,29,11,-16,-35
13,27,8,35,5,-10,-10,-9
-6,-6,-9,14,-49,-12,3,11
-9,42,13,5,61,8,9,32
42,-32,36,-38,-8,-5,-11,-60
8,-63,-19,77,-11,4,3,10
4,10,-17,-24,5,2,-9,-8
1,85,18,8,22,11,29,10
33,-31,11,-21,-13,-3,-4,-2
-52,-8,5,-63,-22,-10,-9,17
3,-10,-28,100,0,-6,-8,-8
8,-5,5,-45,5,2,1,-3
-1,23,20,7,4,5,-4,1
-1,15,4,-4,-6,2,6,36
8,-1,17,-10,1,-3,6,32
-7,-11,-33,-22,10,3,18,-58
8,-34,-42,16,0,-4,-26,-29
-18,-7,-40,-12,-3,-9,-18,-3
4,-7,32,-4,-21,-4,5,32
-2,1,-27,8,22,9,13,32
-1,9,-2,-3,0,5,7,7
-7,18,41,3,-4,-10,-34,-74
14,38,17,-58,-85,-19,2,24
69,18,-13,121,127,31,11,33
-34,-86,-5,-60,1,-3,-27,-61
-21,-2,1,-30,-15,-9,-3,-11
1,-12,5,-3,-22,-9,2,19
25,-7,-24,-26,-14,-3,-7,4
-49,-26,-30,3,2,5,35,22
-3,11,-3,-83,-35,-13,1,23
11,-4,-9,82,7,0,8,25
-9,27,32,89,10,5,-7,-26
8,1,-12,-32,41,7,19,14
38,-17,-42,-13,-9,-4,-15,-12
-25,-35,17,-4,-15,-7,-14,2
-11,-39,3,-103,-39,-3,18,38
16,53,-9,127,16,-5,6,-9
39,3,-19,-78,6,-5,-33,-46
-31,-17,14,-3,-9,-7,-4,0
-9,-5,14,-7,3,-3,-4,24
8,24,37,4,-7,-1,4,1
24,-8,-58,-2,3,0,3,-7
-31,-2,-22,0,-7,-1,-1,-29
-9,-25,0,-49,-17,-7,-5,-3
-14,4,6,27,-29,-6,-22,3
22,22,-8,47,70,15,11,22
26,11,38,3,1,8,10,-15
21,-18,-17,-9,2,6,7,-20
-20,-18,-17,-13,-9,-5,-12,12
-27,9,-10,-54,-15,-10,-15,13
43,-6,26,14,-39,-11,23,-20
-37,3,-2,17,7,13,9,22
2,-32,-4,-63,16,3,6,20
-12,45,25,71,-6,-18,-29,-49
-7,-8,-22,26,8,-1,-11,5
-4,-48,-26,-4,11,2,2,12
-4,-24,-54,-21,-8,-6,0,-10
-12,22,-4,19,-24,-3,3,9
15,-17,47,-37,-10,2,3,6
16,4,2,8,19,2,5,15
35,15,11,10,3,3,13,20
-45,9,-5,18,3,-2,-3,13
18,45,27,14,0,-5,-18,-28
40,-54,-58,-29,-1,1,-22,-46
-43,-42,-7,1,2,-1,3,19
-8,-1,-4,5,4,3,13,13
25,29,21,-1,-4,1,0,-17
46,23,15,-118,-49,-3,-8,33
-4,22,37,127,66,4,42,-17
-17,14,20,-54,20,1,-22,-10
37,-8,-69,-24,-10,-12,-7,25
-95,-51,4,-6,-11,-1,-7,-15
-20,33,-5,-5,-9,-1,-3,10
20,18,28,-11,-8,-1,3,11
20,-29,4,-11,-30,0,5,29
23,-3,4,110,-20,-10,-2,-7
1,6,8,-71,91,22,7,-17
1,11,-1,22,29,6,-5,-1
-8,10,-6,-24,-18,-10,-13,-16
-2,-5,-35,-4,-11,-1,3,1
0,1,-12,-8,-13,-2,4,3
5,5,21,-3,-7,1,12,15
-5,24,14,-128,-49,-11,7,50
-6,6,27,127,-26,-12,-9,-40
29,17,-46,-117,40,3,-18,-61
-12,-62,-43,7,60,8,-16,-37
-46,-28,0,-20,-14,-6,4,27
4,32,11,-13,-20,-2,7,25
12,12,3,-1,-7,4,6,-10
-40,-101,-9,-4,-8,-12,-12,-20
12,35,5,-22,-10,-4,-22,3
54,13,10,42,-40,-21,60,57
-5,-38,3,-26,46,11,4,-7
-22,49,0,1,9,5,-8,4
20,35,-25,-4,-1,2,1,24
17,-16,-25,-8,-10,-7,-16,-65
-18,-61,8,-3,-11,-8,-28,-22
-59,-9,2,-2,-10,-5,-4,6
6,-1,11,4,-4,-2,5,13
23,17,6,5,8,14,15,33
5,47,17,-113,-72,-10,23,47
8,-12,-42,120,77,-12,-15,-16
-49,-52,24,19,27,7,-50,-128
-40,-21,4,-24,-2,-5,-11,-6
22,7,-40,-89,-35,-6,12,15
-9,10,-18,87,-12,-9,9,30
30,-2,40,-98,-5,7,11,46
-32,-10,-17,66,23,9,-6,-46
-8,18,1,27,-7,-4,-9,-11
-2,21,-9,61,-37,-14,-7,6
0,-7,29,-87,6,2,6,12
6,-10,-33,-37,11,14,11,31
1,22,-3,20,4,3,4,-7
-2,33,-4,-13,-13,-8,-1,-13
-24,-43,9,-65,-29,-3,-14,-5
-3,-39,-8,93,42,7,-5,12
-5,6,3,-11,-8,-11,52,7
-10,12,-4,2,-7,-2,-15,-25
32,-16,18,-8,-8,-5,-23,-28
19,8,-24,-6,-8,-2,1,19
1,-4,10,-5,-4,-1,3,40
-11,-26,1,-9,-5,0,0,-14
16,8,-35,-3,0,1,-1,-2
-51,-17,5,0,3,4,-2,-51
-21,18,4,5,3,-2,5,23
16,22,-4,-4,-2,-8,0,5
26,-25,40,-5,-1,-4,-9,9
-38,-3,-25,4,2,5,6,-5
8,6,1,19,-2,-1,-8,-6
4,-26,-19,-81,-3,-3,-17,3
5,0,6,44,-7,-2,2,4
2,24,30,-20,-92,-17,8,16
0,27,2,119,127,40,18,22
3,21,4,9,67,20,20,24
58,-8,44,-39,-19,-18,-23,-7
-128,-24,-103,-43,-33,-23,-25,-43
-1,-60,-19,-20,-23,-7,-14,-32
10,12,36,-5,-18,-3,4,10
0,11,25,-11,-32,-3,7,12
7,5,7,102,22,14,5,6
4,22,6,-43,20,7,-3,2
4,15,2,-100,-4,6,-1,46
4,23,8,39,-32,-12,5,2
-19,-28,-4,1,29,-10,-22,-75
47,-33,-9,31,12,-2,-9,-11
12,28,-13,2,-5,-1,-2,15
-49,-48,-20,-8,-6,6,18,29
13,16,3,-8,-13,-6,-26,-6
-41,24,-4,-13,-17,-5,-11,-37
-3,-2,53,61,7,-1,-3,21
-4,-10,-51,-59,10,6,-26,7
-10,-35,22,-9,-2,3,0,-16
-22,-1,23,-72,-21,5,41,29
13,25,3,66,22,2,-2,16
-25,32,-1,57,-14,-6,-24,-83
0,0,-8,-26,8,4,-9,-3
73,21,42,16,7,4,2,32
-48,-4,-25,-8,-20,-11,-14,-28
-10,-28,1,-47,3,4,-1,-2
-5,-13,1,0,-10,-6,0,4
2,14,24,-23,-53,-16,-1,5
1,-2,-15,91,35,9,1,4
10,23,68,-13,41,17,7,11
-37,10,-96,-47,-23,-4,3,-3
-11,-26,-23,-12,-19,-13,-8,-19
33,-9,21,25,10,2,-3,-5
5,-1,12,16,-14,-5,9,26
15,-9,5,-15,11,4,3,33
-74,6,5,20,-14,-5,-21,-42
4,20,0,-2,-6,-5,-8,-70
-2,-56,-1,-10,12,0,-10,-8
-6,30,9,-4,3,1,6,33
38,2,16,19,2,3,16,28
8,-22,-2,-58,-25,-14,-1,-25
-28,27,13,49,-7,-1,-4,5
-7,-52,-7,-30,-2,0,-10,-15
23,6,-37,41,-5,-7,-9,10
-5,-55,-25,-14,12,13,24,13
11,36,10,-10,0,5,18,31
10,-11,12,-20,-23,-20,-20,-9
-16,-4,-11,23,-29,-24,-32,-40
-8,10,5,-5,26,8,9,26
36,-7,-12,-29,16,17,-1,24
-39,-20,21,53,-4,5,89,30
-27,-34,-10,-73,-17,-9,-9,-82
18,5,-9,-18,-17,-14,-27,-18
34,16,6,67,14,10,-1,4
18,7,14,59,29,8,-4,0
11,40,13,-42,-38,-3,5,19
-20,-48,4,-74,6,-5,2,4
-5,-1,-13,23,46,17,10,4
14,10,7,46,-2,-2,1,13
-27,-34,34,-26,-20,-6,-3,-1
-11,4,-24,6,-18,-4,-3,-9
7,-13,-19,-116,-27,-15,3,2
35,32,41,127,9,-3,-10,-14
-37,1,-11,16,27,9,-27,32
37,16,-13,-9,-1,7,75,79
-2,16,8,-9,-7,-12,-25,-74
45,6,-17,-18,-8,-12,-50,-88
-56,-29,7,-18,-23,-16,-20,-25
0,-31,0,59,-5,4,5,23
21,17,-5,-37,31,12,13,16
28,4,23,4,3,3,13,38
-21,-15,-27,1,-7,3,5,18
8,39,10,-28,-12,1,8,8
-36,10,4,35,14,4,-7,-9
4,-2,33,-5,-8,-2,-21,-9
20,12,-7,-62,-41,-6,4,3
-11,-20,-39,58,15,-15,1,4
-22,-15,9,-47,32,1,1,1
1,-7,0,-97,-17,4,-3,15
57,14,19,108,9,5,-2,4
-18,-11,-52,-16,-17,-13,-20,-16
-11,-27,17,72,-22,-4,-11,-20
-4,11,7,-128,1,1,5,-1
-27,-12,-26,29,5,-3,-1,-18
-17,-13,-6,60,40,-1,-11,-14
7,14,22,-5,-14,-6,-12,4
4,-12,-7,-64,-14,-2,10,12
-4,-20,45,55,-17,5,4,-4
43,48,-25,36,37,15,3,27
-1,-9,-29,-30,-5,-5,-4,5
-40,-55,12,-13,-9,-7,-14,-27
-19,-3,11,-37,-57,-19,2,14
49,28,-39,55,79,10,-13,12
66,1,-2,-12,-1,2,1,25
-37,-8,8,-4,-10,-3,-12,-19
-4,0,-2,-4,-8,0,-10,-49
-8,8,15,-4,-8,4,4,7
18,4,24,1,-6,-7,-12,-19
-76,3,-16,-6,-6,-10,-16,-11
-16,-36,-33,-19,-11,-2,-7,-32
-21,-3,22,3,1,-1,8,15
31,0,-16,22,12,7,7,8
18,2,-17,-27,2,0,-13,0
17,25,12,-5,-3,-1,23,13
5,22,3,0,1,-3,-2,2
-22,-61,2,-31,-18,-2,2,0
-12,8,52,35,-30,-7,0,15
4,1,-94,34,87,19,8,0
21,-33,-36,-16,-28,-2,-15,-27
-27,-8,-32,-46,3,-18,-25,-34
3,-2,6,-16,-10,-5,-10,-13
-17,-13,15,-5,-7,-4,-2,-2
-4,5,21,-27,-11,0,6,6
-3,9,-1,30,-15,-6,3,3
-2,3,-5,13,5,3,0,5
3,4,19,-128,-73,-17,-14,-5
5,16,-43,127,108,24,54,68
-7,26,87,-45,40,23,23,-9
6,-3,15,-8,-17,-10,-43,-105
-27,-66,-109,-56,-11,-7,-13,20
-23,-22,14,-11,-19,-13,-28,-39
-14,-12,2,4,-9,-10,-39,-46
-6,-11,3,6,-8,-6,16,21
3,16,20,10,-7,4,12,19
2,14,9,8,3,9,11,13
6,8,1,6,1,6,16,25
-7,35,-5,-16,-19,-6,-21,18
36,-1,-18,20,12,-8,30,6
38,-23,-15,-33,-7,-14,-17,-8
-114,-45,9,33,-2,7,-22,-21
-16,-9,-18,-25,13,2,-24,-30
5,20,-16,21,-2,-3,0,-1
13,31,9,1,-1,-5,5,8
7,-17,30,-127,-50,-16,-4,14
10,2,-31,106,38,5,8,25
25,-16,-5,50,15,7,6,-3
13,61,-12,-39,11,5,-3,-8
-19,-80,-69,-31,-19,-6,-1,15
-13,-13,22,-13,-25,-17,-7,-21
12,4,-16,-35,2,1,-10,-33
-5,21,26,79,1,2,-8,19
-8,-41,-4,18,-7,-1,4,27
-5,20,2,-32,4,1,13,10
0,9,-19,-9,-16,-11,-13,-59
-1,-24,18,-17,-20,-5,-6,-3
3,0,-18,30,20,5,1,4
-3,6,7,-8,5,8,12,28
8,24,-23,-13,-6,0,16,35
-2,-30,0,-32,-30,-13,-28,-16
10,-10,-1,53,30,-4,-16,-22
-38,-1,2,30,11,5,3,-26
9,-43,-2,-5,-1,-2,-1,5
6,-4,0,-6,-9,-4,-6,7
19,37,19,-7,-8,-6,-9,0
-37,-33,-47,1,10,2,-7,-10
-15,26,13,-1,-1,0,3,4
7,10,-34,-15,-13,-4,5,5
8,-1,15,-50,-51,-12,1,18
-12,24,61,127,4,1,16,53
1,-2,-51,-10,104,46,24,23
14,-36,-16,-38,-21,-26,-38,-103
8,-25,-41,-55,-31,-18,-29,-54
-2,-4,25,-87,-50,-19,-19,10
-3,26,-15,102,24,8,9,17
-1,18,20,12,5,6,9,18
1,8,27,-1,-20,-7,1,14
-6,-15,-8,-53,-22,-9,4,3
-10,10,27,21,2,8,6,1
-7,1,-43,17,-5,7,16,22
-1,19,-8,-83,56,21,16,24
46,56,7,-17,-11,-12,-25,-27
22,-41,25,-9,-13,-22,-36,-20
-13,9,11,4,-26,-6,15,-4
-1,3,0,8,4,-1,3,-15
-13,-2,-2,3,0,1,10,33
11,-6,-3,1,-5,0,-14,-11
-14,-4,-12,-6,-12,-9,-1,1
4,12,-1,-42,-21,-14,-8,-24
25,7,7,82,24,7,-13,-10
5,-16,-1,-27,12,5,-1,31
35,-33,-24,-5,2,3,10,-11
-40,6,1,-24,-12,-1,6,-8
1,10,6,-20,-22,-15,-20,-17
19,15,0,22,-27,-8,-1,9
-7,-9,2,71,-1,4,-1,-4
27,31,7,6,66,22,17,33
17,-35,3,-10,-2,-6,-4,-16
-26,-8,-70,-21,-11,-6,-29,-23
-34,0,-3,-23,-21,-14,13,24
-19,-23,19,-7,-31,-6,14,33
20,-25,9,-8,-2,-12,-14,-54
1,-6,7,25,17,1,-24,-47
-6,19,5,-8,-1,3,-5,5
2,14,18,-5,-2,3,5,14
2,2,-1,17,-17,-1,4,15
-11,5,4,-26,-9,-7,4,6
-12,30,-2,-39,-15,-8,0,9
11,-39,5,77,-16,-2,6,34
29,5,-10,-7,42,20,29,31
3,-1,-5,-10,-10,-23,-43,-41
-31,-22,25,1,-5,-8,-26,-61
-2,-15,-11,3,4,-2,-5,6
9,9,-27,-51,-15,-2,5,21
-20,-4,8,17,-10,-1,5,16
3,27,30,41,-48,-7,-14,-15
9,-10,-35,127,127,20,37,78
20,-36,-3,-46,1,0,-1,-32
-12,16,26,-25,-20,-7,-35,-88
1,-16,-13,-9,-15,-7,-12,8
-10,-4,-13,-122,-55,-19,-5,11
-21,-10,3,117,-26,-11,14,40
30,46,36,57,73,30,20,16
53,18,-47,-35,14,5,-12,-14
-128,-93,11,-22,-17,-7,-21,-5
-21,-26,-43,-10,-18,-16,-12,-19
1,2,27,-28,-28,-13,-14,-49
8,-2,14,-24,-4,1,10,16
-9,14,-9,100,-14,-2,-3,-7
4,9,-9,-25,51,16,6,18
11,19,10,-15,8,7,8,41
17,8,18,0,-7,4,23,36
35,26,27,-4,-14,-5,-31,-59
-61,-35,2,-1,-9,-7,-8,-42
12,49,3,8,-5,-5,1,15
-5,-8,-3,-8,-6,-3,9,21
-11,4,8,-77,-38,-6,12,7
30,19,28,115,59,8,-9,-15
27,-76,-66,-3,9,3,-14,-15
-16,-49,-33,-39,-11,-5,-7,-27
-17,1,7,10,-1,3,6,7
-4,21,8,-46,-6,0,7,11
10,16,3,10,-13,-3,12,21
5,4,3,8,-12,-7,-9,-46
-22,10,9,-30,-10,-5,-29,-7
7,-8,6,37,-20,-9,24,36
21,-7,-3,-103,12,4,15,36
-5,34,-19,127,72,23,11,-30
-10,-16,-13,-64,-9,7,-21,-59
-24,-45,-32,-39,-20,-15,-25,-20
-24,-4,6,-5,-32,-10,-10,0
4,22,7,51,-4,-7,1,9
5,-11,-20,-10,7,2,5,9
2,1,3,-9,-7,-1,2,7
-9,16,14,-27,-44,-6,10,20
-4,33,15,87,24,3,7,39
66,18,-40,-69,40,4,19,-28
22,-79,28,-13,4,-1,-36,-33
-23,-43,-14,-13,-15,-4,-13,-32
-41,15,-33,-16,-6,-7,-3,5
-14,39,19,4,-7,0,4,10
10,2,-1,6,-1,4,-2,14
8,9,7,-24,-12,-7,-1,11
25,14,3,6,-7,-5,6,9
-12,17,6,22,17,4,0,37
42,28,-11,17,-3,-2,-4,-19
-13,-22,-2,-53,-11,1,33,-17
-27,-47,-2,51,-3,-10,-27,-22
-8,-15,14,-23,14,-7,-27,-21
-4,21,-13,-24,0,4,6,15
7,-52,1,27,11,7,33,31
7,21,56,-38,-91,-13,-4,17
62,-1,-48,127,127,28,-12,-10
-108,28,-41,-55,10,-5,-24,-33
-33,-31,42,-31,-22,-11,-10,3
-1,11,2,-41,-36,-10,0,-14
12,2,-4,44,-22,-9,1,-31
10,-6,13,45,9,5,20,11
23,11,-6,-122,8,8,1,21
3,-5,1,-19,-12,-6,-7,1
-8,52,41,-32,-26,-9,-4,3
-10,-9,-42,41,0,-6,5,-4
18,-26,-46,1,8,10,7,26
36,-8,-7,-16,4,7,34,33
-8,23,11,-7,-8,-14,-12,-35
-16,-7,48,6,-2,-4,-7,-13
-20,0,-27,1,-6,-5,-12,-11
-3,-12,-9,-2,-6,-4,-25,-2
35,14,5,2,2,3,7,-1
-6,14,-2,9,-5,-6,-3,-8
-49,-52,11,-16,-10,-3,-4,3
-64,8,-18,-13,5,4,16,33
30,30,-2,52,19,1,11,34
10,-69,-10,-30,-10,-4,-30,-94
20,9,15,12,10,3,-20,-58
-5,-12,-7,-3,0,-2,-17,-3
1,-3,-5,-50,-29,-8,5,23
3,29,23,69,2,0,9,25
-4,17,22,-73,-77,-16,4,15
-2,2,48,104,29,5,5,11
12,24,-55,73,103,33,20,16
13,-24,-83,-44,10,1,3,6
-28,-25,18,-39,-36,-16,-7,-2
-31,-37,6,-22,-34,-8,-6,-7
4,-25,24,-15,-28,-12,-7,-7
26,7,2,-12,-12,-10,-11,-8
-25,9,29,9,-44,-10,-5,-10
-14,4,-19,47,77,21,10,8
24,21,-14,-37,13,8,-12,-5
20,-12,14,0,-1,6,12,29
25,35,65,2,-7,-1,21,-3
29,-2,-63,-6,-6,-10,-16,21
20,-96,-26,-12,-13,-13,-31,-17
-18,41,19,7,3,0,24,-32
-23,-23,0,0,-4,0,-4,-52
1,16,7,2,0,-5,-5,17
16,5,-3,3,1,-2,-1,21
11,26,8,0,4,3,10,19
-10,5,5,2,2,7,13,17
2,17,26,-14,-6,-3,-12,-1
42,21,-5,-8,-11,-8,-12,-2
62,-2,-16,8,-5,-4,7,15
-104,-65,-1,18,13,5,0,1
-22,7,16,-100,1,3,-10,-21
-17,-15,-20,127,13,-2,-8,-40
1,-13,-24,-7,-1,0,4,4
11,24,38,-45,-97,-28,-5,23
8,-3,-8,127,103,18,-2,1
-12,12,-8,-79,24,13,6,3
-13,-13,-14,-30,-16,-8,7,12
-12,4,-1,-23,-29,-14,-13,-34
8,-26,25,-27,-31,-7,-5,8
-27,-35,-22,48,12,6,6,1
12,-10,-12,-8,17,6,-5,4
-7,40,8,3,-6,2,-6,-23
-16,2,-40,-7,-4,-3,-1,-3
-28,-7,33,-80,-26,-11,8,27
23,31,20,81,-9,3,10,14
43,31,-14,36,47,-2,-23,-56
90,-41,-23,-9,5,6,-9,2
-118,-38,-6,-19,-22,-16,-24,-49
-52,-20,-15,-13,-8,-4,41,35
9,17,8,-4,-2,1,-4,-26
9,30,31,0,-9,-4,0,11
-1,18,-7,1,-6,-7,-15,-4
-18,-14,7,-20,-8,-1,-2,-6
-14,21,-3,-45,-58,-9,-6,13
-6,-3,-24,127,118,33,22,30
-1,-6,13,-13,4,3,-10,-11
59,-18,20,-45,-6,-3,-12,-28
-22,-1,-42,-20,-41,-15,-9,3
15,-25,2,-21,23,2,2,3
17,14,1,-7,1,6,0,-1
-44,-9,6,-28,-10,-4,-7,0
-21,-26,18,64,-35,-12,-4,-1
-4,57,-9,-29,43,10,9,16
15,-8,-18,-8,8,8,21,49
26,28,13,-55,-12,5,17,26
-16,-76,-7,56,-11,-4,-31,-96
-123,-66,8,-26,-14,-15,-30,-88
-38,39,0,3,0,-13,-12,13
26,8,-7,2,-5,1,9,21
25,10,-1,-8,-5,-2,-11,14
9,5,-21,0,-2,-1,8,13
5,9,12,-3,1,-3,24,19
-5,5,14,6,-3,2,-2,-1
-36,-7,-1,1,2,4,22,20
18,20,17,-128,-44,-4,-6,16
79,24,5,127,-26,-16,-11,7
6,-26,-26,-66,78,13,-5,-4
-76,-82,-17,-54,-11,-5,-35,-115
-35,-19,-6,-23,-13,-6,-9,-7
14,47,15,-11,-18,0,9,20
8,-2,-20,-27,-10,-3,5,11
6,10,23,40,-30,-3,4,26
6,19,12,7,27,6,1,-32
-5,2,8,-4,-13,0,9,22
-11,19,7,-17,-11,-4,-7,0
32,25,32,72,56,13,6,-4
96,10,-32,37,49,13,4,41
-42,-24,-2,-34,-17,-14,-16,-20
-41,-76,-76,-22,-17,-7,-8,-21
6,15,25,-52,-21,-5,2,6
-6,19,-1,71,1,-1,0,6
-4,10,14,12,10,3,-2,-1
2,10,1,-54,-6,3,1,5
-4,25,9,29,-35,4,2,17
11,15,1,41,49,6,29,38
61,-4,6,-38,4,-2,5,5
11,-20,-16,-13,-14,-15,-35,-94
-38,-34,-27,-9,-6,-5,-9,7
-6,17,-1,-1,-12,-5,-5,-24
-9,-6,13,0,0,4,1,3
17,10,3,-1,-5,2,1,22
-7,1,-18,-15,-7,-5,5,33
69,32,21,24,-5,-2,4,13
-59,8,-2,-2,7,0,-9,-18
10,-20,4,-38,-9,-6,-13,-2
-3,-10,-19,32,2,-7,-4,-3
11,12,50,-19,-10,-2,0,-17
-17,8,5,10,19,9,5,8
5,-13,-37,-25,-29,-9,1,6
-9,5,-8,75,23,-1,7,15
8,24,-21,95,74,25,19,39
30,-52,-17,-83,-30,-18,-15,0
-14,-11,-4,16,-25,-13,-26,-75
-48,25,-17,-53,9,0,-9,-6
6,-29,-1,-22,-24,-10,-9,-42
6,22,37,-9,-22,-12,1,7
4,23,9,0,-6,-2,3,14
2,-8,-1,83,17,14,12,16
3,-30,-5,9,35,11,14,30
-12,18,-3,-24,-7,2,-22,-6
-9,14,6,-2,-4,2,18,-40
-4,-3,7,-21,-17,-16,-10,1
37,-11,-45,25,6,-4,-5,-8
-11,8,-3,-9,-10,3,-9,14
0,6,10,-16,-18,-5,-7,-1
-19,3,-4,25,32,6,-20,-28
-75,-32,-13,-8,-7,-13,14,-42
7,23,7,-3,-1,1,8,36
1,-2,11,-5,-6,-1,2,-27
5,15,4,-7,-4,4,5,-31
22,19,9,-12,-22,-5,-4,20
8,-10,-51,-1,19,1,1,30
31,-11,20,-22,-2,1,4,11
-8,-1,-8,49,10,-8,-23,-59
-6,2,-13,4,8,8,0,7
-7,-4,31,-23,-15,-3,3,8
-8,7,-10,-59,-8,-1,4,11
2,-6,-30,127,6,-8,-1,4
7,25,-9,-128,-22,-9,0,3
0,-7,1,33,-36,-12,-1,-1
3,24,62,120,23,6,3,-8
8,-25,-19,-78,41,19,5,8
34,11,-52,-26,-10,-2,-9,4
-79,-7,26,-23,-19,-2,-14,-37
4,-52,-59,4,-16,-6,50,24
-14,22,20,-30,-14,-6,-23,-3
-15,-1,27,-4,-4,-2,-4,8
26,26,-17,-7,-6,-5,1,30
4,22,-14,9,-12,-10,-8,-2
-7,-12,-11,-8,16,-2,2,-37
1,-37,-8,-3,0,-2,-23,-42
-17,1,3,-9,1,-2,-10,16
10,27,-2,-3,-5,-1,8,47
12,-37,3,3,2,7,14,26
-17,-5,7,-1,-7,-3,-1,-23
26,18,5,1,-10,-13,-34,-16
27,48,10,-9,-3,-5,-15,-11
4,-29,-27,-13,-7,0,18,0
-56,-24,20,-83,-59,-13,-4,3
0,-1,-2,52,92,18,7,13
21,3,-35,64,25,12,9,13
15,1,-17,-6,-14,-3,-6,-1
11,12,-10,-23,-4,-1,-4,2
-3,-9,29,-20,-48,-12,-17,-13
-60,-12,2,-41,-15,-10,-12,-19
26,39,42,-1,76,14,33,22
46,13,-66,-49,-9,1,2,25
-11,-93,47,-16,-17,-8,-8,-18
-32,6,-7,-21,-15,-9,-12,-13
-6,33,4,1,-35,-9,-5,-44
-5,-46,9,-20,11,-2,-2,0
9,14,13,33,-1,6,3,11
-9,7,-2,21,20,4,4,2
-10,-3,3,0,-11,-5,-2,23
24,12,8,-39,0,1,4,17
25,29,-12,-21,-13,-8,1,13
7,-15,-1,-2,-3,-4,3,8
-34,-27,-4,-11,-2,-9,-34,-72
-17,4,-3,20,-8,-10,5,-29
23,-4,15,-7,-6,-1,-2,38
-26,-7,13,-2,-6,-5,-6,-41
-30,-14,-10,-14,-12,-9,-7,-5
7,20,9,27,-16,0,4,10
15,3,-35,13,53,26,11,20
-15,-16,4,-15,-1,1,-12,17
-8,17,17,-27,-20,-8,16,3
25,-5,9,53,-2,-3,-2,-46
7,-16,-30,6,21,6,0,3
0,63,19,-52,5,-5,-13,-28
-34,-70,-33,62,-2,-8,-12,-21
10,-8,7,4,-32,-5,0,14
-4,-6,-17,-105,-9,-10,0,5
-17,-3,51,127,38,13,9,3
19,20,24,-98,22,9,2,0
23,15,-17,-10,-7,3,12,20
31,21,-9,2,-13,-2,3,11
-115,-24,6,-13,-29,-14,-10,-21
-12,-19,-8,-56,-18,-12,-23,-16
-2,3,4,93,35,12,-1,2
12,-6,-14,-8,3,6,2,8
6,11,10,0,2,7,-12,5
14,14,11,-6,0,1,11,-22
21,-27,-38,-14,-10,-15,-10,15
17,4,10,-5,-7,-12,-25,-63
-8,-4,-4,-2,-4,-8,-14,1
-21,-15,27,0,4,8,-8,13
-26,1,-7,-11,-14,-8,22,35
45,15,-19,20,19,1,5,-8
28,-29,-17,-2,-3,-2,-14,-26
-67,0,-1,-52,-21,-2,-12,-2
6,13,14,40,9,6,13,31
7,16,3,27,12,4,7,13
-43,-24,4,-17,-5,2,-2,-5
-15,5,2,-14,-41,-4,-24,-8
14,3,-9,-42,9,-7,-2,-18
3,8,4,6,-3,2,2,3
24,3,-20,-4,28,6,3,18
-11,-30,-28,11,-11,-6,7,26
-12,-21,-10,2,-38,-17,-26,-70
-3,24,0,-59,17,2,-6,-3
9,7,18,-23,-2,5,10,14
5,-1,7,31,16,5,4,7
2,-6,-24,-1,-10,-1,0,14
-22,28,2,-27,-13,0,-4,6
-18,2,13,42,-35,-9,1,-17
15,38,11,16,33,-2,-5,-24
68,-40,0,-1,18,8,3,29
-26,-37,-59,-4,-5,-5,-14,-36
18,-19,-25,-9,-10,-5,21,3
-56,2,26,-9,-8,3,-8,-13
-1,19,15,-7,-5,8,13,26
-1,7,-6,-10,-10,-7,-31,-30
23,19,6,-25,-11,-9,-2,-4
14,-6,2,34,24,7,10,53
21,15,5,42,11,7,8,16
13,-7,-3,-48,4,-1,-15,-63
-25,-2,12,-25,-7,-8,-14,-24
-15,-22,-26,21,6,-2,3,13
-5,22,6,-2,-9,-2,4,11
-1,1,15,-25,-6,3,3,11
0,17,22,-92,-106,-23,-4,3
0,-14,-28,127,127,33,10,8
17,-7,10,-78,15,-1,0,17
10,9,-90,-38,-29,-10,-1,-18
-12,-1,15,17,-3,-3,-10,-1
2,18,24,1,-13,-6,-9,-5
-25,-98,-14,-28,-17,-6,-2,0
2,3,9,0,-9,-5,0,-2
3,23,8,-9,-5,-6,-5,-5
-12,32,48,-98,-121,-23,-1,9
8,6,-39,127,127,41,42,75
18,-11,-37,-128,39,9,-5,5
45,-67,5,-30,-14,-7,-41,-128
-42,38,-10,-13,-18,-16,-30,-30
12,-1,11,4,-18,-6,31,-1
-6,13,2,6,-11,-2,1,23
10,0,3,10,-3,-1,5,25
6,-1,-2,7,0,2,3,17
5,-2,1,10,-1,1,1,6
-16,1,3,4,-3,8,24,44
-12,23,19,10,-1,7,11,12
73,7,-24,-2,-8,-21,-56,-63
48,19,-9,5,15,-3,-14,4
-14,-76,48,3,6,3,10,-3
-119,-72,-17,-3,-7,-4,-8,-15
-11,39,-13,-8,-12,-8,-6,4
13,5,-4,0,2,4,1,2
15,20,-6,4,2,0,7,7
6,28,15,5,1,-1,4,2
7,3,-2,-4,1,2,-1,2
2,6,-1,-5,-7,-9,-6,0
-1,0,2,-103,-28,-14,-6,-3
-3,-4,17,51,-56,-7,4,2
-29,-12,-33,116,69,24,23,49
-16,46,41,30,124,36,18,18
73,-1,-34,-30,-16,-27,-64,-118
7,-23,-70,-72,-67,-26,-24,-30
-28,-97,-30,14,32,-4,-18,-23
-17,22,23,-20,-8,0,2,20
-14,-6,-15,-14,-20,-4,5,18
0,19,37,-8,-18,0,3,15
3,17,-16,-2,-9,1,2,12
4,12,-4,1,-7,-3,0,4
5,7,4,12,-4,6,2,4
7,15,14,23,29,19,16,11
-18,4,0,-42,12,8,11,11
20,-18,-25,-6,-10,-10,-11,-7
-39,-16,5,-15,-13,-18,-22,-22
-36,-14,3,-3,-10,-9,-19,-26
-8,-4,-43,-3,-12,-6,-11,7
7,-77,-20,-1,-4,5,19,-6
-32,-19,-2,1,-2,-3,1,-3
1,9,12,-1,1,-6,-10,-12
6,17,7,-6,1,2,4,17
-3,28,5,-13,-14,-7,-12,50
14,-9,-8,19,-23,1,18,8
14,-15,10,7,42,0,-20,-67
17,-20,17,-68,-33,-13,-22,-57
-49,15,4,-25,-24,-8,-12,-2
-24,7,-23,121,56,14,3,12
-1,2,-13,-15,12,5,4,15
12,-11,11,-23,-14,-8,-8,0
-8,-2,-16,-43,-33,-12,-3,3
4,18,25,86,-17,1,1,2
26,17,-3,-90,54,26,19,32
8,-7,-9,-17,-11,-5,6,16
-17,-7,44,-10,-14,-3,-10,-29
23,13,5,-46,-16,-6,-3,15
-41,-17,-30,71,7,-7,-5,-28
-15,-30,8,-9,0,2,-11,-35
-6,-23,-14,4,-10,-2,-11,-15
-1,-2,-9,-19,-18,-13,-9,20
20,14,1,25,7,2,3,24
10,-27,10,-15,8,-2,4,-18
-7,34,-11,0,1,6,9,0
0,-15,6,1,-8,0,3,5
16,12,1,-33,-17,-7,-7,-4
30,-4,-7,57,-5,3,19,35
-34,-27,-21,10,30,0,-26,-36
-13,-42,5,11,-33,-17,-25,-52
-18,7,-5,29,53,9,-2,11
17,13,-6,-20,-13,0,5,7
-56,49,37,-12,-4,3,8,33
-20,-32,-103,-14,-5,-5,0,-6
25,-15,-1,-89,-27,-7,-21,-23
8,8,3,22,-12,-13,-8,-13
9,1,13,119,12,8,8,21
17,56,53,-44,18,8,14,19
21,1,-41,-2,-17,-3,-1,2
-36,-39,4,-21,-9,-11,-13,-15
-39,6,7,-62,-9,-2,0,8
-7,-11,-13,29,16,1,6,6
39,14,4,5,-7,-5,2,2
7,-11,-28,-5,-7,-2,-5,-1
-5,-16,8,-6,-10,-6,-6,4
-5,7,-5,-21,-15,-7,-1,-43
-7,22,40,-13,-67,-12,-8,25
-9,2,-6,55,120,29,37,33
10,-2,-7,13,9,-1,-31,-62
13,49,-26,-16,-16,-5,-17,-22
9,-71,-16,-12,-12,-1,15,30
-19,-63,4,-10,-23,-13,-17,-27
-68,9,17,-45,-25,-5,0,7
-29,-16,-8,51,24,2,-14,-21
42,49,9,-35,-5,-14,-15,-5
14,-14,22,14,-32,-11,-1,20
22,10,9,-2,40,18,14,24
-2,29,-4,4,2,4,8,9
-11,-26,6,-10,-6,0,-13,-12
-11,-23,-48,-22,-10,-6,-6,2
4,3,9,1,-6,2,9,28
-17,-1,2,-11,-4,-5,2,-29
3,-4,4,-31,-26,-17,-14,-4
-7,9,-6,50,38,7,-4,-18
9,1,5,-35,-9,-4,-4,-32
3,-13,18,78,-3,-3,-3,6
7,15,-24,-11,22,8,-14,21
-8,3,-2,-28,-20,-4,37,34
-18,-4,13,-3,5,-5,9,23
-19,-48,4,-43,-34,-19,-23,-53
-24,2,-3,-19,20,3,-13,-19
-10,16,-17,62,-3,1,-5,4
-4,19,-2,47,3,4,6,9
-9,-1,5,-60,12,3,0,-10
39,25,8,-82,-8,6,7,7
47,31,-13,28,-45,-13,7,30
8,-41,-4,59,35,2,1,5
-28,-36,-7,-20,32,8,-11,-29
-35,-35,-19,-15,-13,-4,-3,18
-25,28,11,-5,-7,3,15,23
6,-23,-16,-3,-19,-7,-5,9
18,-20,0,-17,-15,-15,-11,-103
-9,5,15,48,-11,-16,-30,-37
-46,8,-30,2,22,13,4,0
1,7,20,-8,4,3,7,20
31,36,-7,-27,-3,2,6,32
-31,-126,-9,-4,-6,-9,-18,-6
15,-11,-14,2,-6,-3,-8,-22
-16,5,24,2,-7,-7,5,6
-3,27,-6,2,-6,-3,2,-9
13,65,-2,2,-1,3,2,7
16,-26,-6,-42,-8,-6,-2,0
3,1,-11,31,-5,-1,-5,1
-20,-14,22,28,15,4,-3,-6
0,-30,5,-42,-31,-12,-3,13
8,5,-36,46,-20,-5,-1,-14
-31,-4,-20,25,72,20,-2,0
16,-7,15,-14,9,4,0,-25
25,9,-13,4,-5,-3,-2,4
-3,24,4,-32,-11,2,4,35
21,-24,-1,-24,-17,-1,-6,-26
-25,0,32,-8,-17,-10,-14,-50
-3,-8,-14,-90,-31,-10,-2,3
16,17,7,127,12,2,2,16
-20,4,1,-7,23,12,11,17
2,6,-4,-5,-3,-2,10,23
1,-10,9,-112,-27,-10,-4,-2
4,21,-54,127,-17,-15,-19,-27
11,-55,-25,-68,47,12,-32,-1
-37,-24,-7,-22,-16,-5,14,-8
35,36,28,-17,-16,-4,16,30
-4,11,4,12,-22,-18,-16,3
-28,-20,-21,-6,10,1,-13,-37
37,36,44,5,-2,-11,-7,-16
26,0,28,2,-2,-4,-16,-8
-8,-23,-23,-9,-6,1,0,13
-4,66,-7,-75,-36,-6,6,18
5,-26,-2,127,26,8,16,66
-3,-4,10,-47,9,-5,-5,-15
-66,-44,-31,6,-6,-12,-32,-104
-28,-7,-24,-9,-9,-3,-8,-9
2,-1,29,-6,-3,5,6,17
9,18,-1,-18,-3,9,10,21
7,21,-5,6,-19,-5,3,9
2,-7,1,18,7,-1,0,9
7,13,40,-49,4,-6,-3,8
8,-14,-117,71,17,0,3,8
-17,-13,-15,-61,-9,-8,-7,-37
-6,-17,-1,1,-35,-9,-13,-14
15,29,35,18,7,6,1,19
9,-3,2,-28,21,6,6,26
-3,-11,4,-18,-7,-1,4,-18
32,-9,-46,-15,-14,-6,-25,-19
-30,8,18,-103,-61,-20,20,18
-9,-14,2,127,23,4,-1,-5
-33,13,5,35,74,18,-15,6
30,-19,2,-4,6,-1,4,-33
-23,13,30,-11,-12,-3,-6,-15
0,-18,-56,-6,-14,-7,-14,12
-18,-40,-16,-12,-14,-5,5,8
-11,5,13,0,1,-1,-3,1
8,34,12,8,9,4,0,7
51,40,23,-3,-9,-4,1,18
47,-63,-59,-4,-4,-4,-2,-7
-6,-2,-9,6,-1,-1,-8,-7
-48,5,3,1,0,1,-14,-8
8,7,10,7,-2,-2,25,38
-7,4,1,-47,1,0,1,0
-14,6,9,-2,-12,-4,24,-23
29,31,3,115,-69,-17,-4,14
44,12,23,-67,127,31,10,7
-59,-73,-28,-61,-11,-11,-30,-76
-5,-8,-50,-65,-27,-13,-13,-46
-23,1,9,39,-24,-5,3,9
0,-14,-16,10,2,5,5,14
5,16,-23,24,15,8,10,7
-11,26,27,-7,-42,-9,1,8
27,16,-12,127,61,14,16,35
63,34,17,-114,4,0,5,17
-25,-66,21,-21,-21,-13,-25,-45
-33,12,3,-8,-12,-11,-7,4
-5,-26,-13,1,-15,-2,2,2
-13,14,22,-1,-21,-8,0,-4
15,16,12,56,41,14,11,17
16,9,-16,-14,1,3,-4,-12
-3,-4,16,6,-16,-5,-5,3
9,5,8,18,7,-3,-8,4
9,22,-8,-1,-2,-1,-8,-39
0,-68,-19,-28,-14,-7,-26,-10
-16,50,56,8,0,-5,38,3
-35,-33,-87,-3,-8,4,-3,5
-18,-22,-22,3,13,-3,-6,-77
4,1,1,1,0,-4,-6,-1
25,16,29,1,-4,4,-2,26
-4,-12,-7,-75,-29,-9,-1,10
9,41,18,-3,-31,-10,0,-3
-3,13,-10,74,61,16,10,20
14,-25,17,-22,3,-1,-1,-4
25,-3,-54,4,-5,-1,-9,-11
-18,1,12,-4,-26,-14,-11,-34
6,16,14,-59,12,0,-9,-34
-1,-58,15,48,0,-2,1,14
32,25,-40,-82,-24,-2,8,17
-49,-5,-9,87,28,10,15,32
4,24,45,-12,8,8,9,1
2,-44,-36,-21,-14,-6,-16,-39
-14,9,-25,4,-15,-8,-23,-9
2,-44,-36,-21,-14,-6,-16,-39
-14,9,-25,4,-15,-8,-23,-9
-2,18,5,-16,-23,-8,31,38
21,9,-1,-12,21,11,16,22
