Channel_1,Channel_2,Channel_3,Channel_4,Channel_5,Channel_6,Channel_7,Channel_8
1,14,-1,4,2,-2,1,3
4,11,59,11,2,1,8,13
3,-14,-54,-18,-4,-2,14,24
-9,-29,-83,-43,-16,-11,-8,-24
-4,5,25,-7,-4,-1,0,11
-2,-3,37,9,-3,-3,-1,3
3,11,-35,5,2,-1,15,16
2,1,-42,-11,-6,-4,9,10
-2,-6,23,-1,-3,-6,-35,-49
-8,19,36,12,1,5,3,9
0,-6,-1,3,-2,-3,-14,-53
-4,8,22,0,-1,-9,8,13
-4,-16,-22,-5,-3,-3,-2,-1
4,19,10,5,3,4,9,8
-7,26,-6,-5,-1,-3,1,-3
-4,-13,-11,-5,-5,-4,-17,-11
5,-27,0,0,2,3,0,2
5,44,12,6,3,-7,-5,-6
5,42,10,1,0,-1,0,0
-12,-53,-22,-3,-3,-3,1,6
-6,-6,0,0,-1,2,4,1
-6,-19,-18,1,2,1,-5,-4
1,-7,-3,2,-4,2,0,2
2,1,6,1,-1,4,0,2
1,5,-6,-5,-2,0,3,2
-2,6,-8,-8,-2,-6,0,-6
-5,-18,-9,-2,-2,1,2,0
1,4,-4,-4,-4,-8,-22,-13
-1,4,1,-1,2,-1,1,0
-3,-1,3,-2,3,2,4,3
-3,-15,0,-2,-2,-4,-6,-13
-1,-3,-5,-9,-7,0,0,0
5,25,7,5,4,1,2,2
-1,-4,-1,2,5,-4,3,2
-4,-18,-15,-4,-3,3,3,1
2,3,-23,-6,-5,-1,2,10
-5,-11,-30,-14,-6,-6,8,10
-7,-20,3,-15,-4,-7,-18,-16
-5,-7,-2,-3,-4,-2,-4,-6
-1,-1,15,9,2,2,-2,-11
3,3,-8,-3,1,-1,-14,-9
1,3,3,17,-9,-6,0,-1
0,2,6,13,0,1,-3,2
1,-4,6,-13,-5,2,-1,-4
-1,6,-2,-6,0,0,1,5
-5,-5,16,0,1,-1,-2,-2
-1,-6,-27,-7,-3,-4,-3,2
-4,18,-28,8,1,2,0,-10
1,11,20,3,-3,3,-6,-3
-5,-58,-3,-3,-5,-1,9,18
-5,-24,-22,-19,-5,-5,19,16
11,-42,48,2,1,-2,-26,10
20,125,60,14,4,3,-6,18
-1,10,-5,-7,-5,-6,-6,-39
-4,2,25,0,0,-3,2,5
-5,-10,-35,0,3,-1,3,3
0,6,7,2,5,-1,1,3
4,18,71,4,3,4,1,3
-4,-38,-126,-7,-8,-2,5,-1
-1,-23,14,-7,-9,-1,0,-1
-19,20,51,1,-4,-7,-22,-16
0,1,0,11,3,1,3,1
-4,-19,22,-25,-14,-6,-2,-1
8,12,4,11,7,7,9,6
-14,-30,-68,-33,-11,-6,-6,-9
-19,-28,-43,-11,-3,-5,3,-7
27,17,70,18,8,5,2,46
0,-12,62,18,-1,-8,-48,-58
12,76,77,16,4,1,8,29
8,27,122,25,3,-2,-1,13
-6,-25,-36,6,-3,1,2,-4
-5,-5,-33,-2,-2,3,4,-3
5,3,3,-4,3,1,6,2
-11,-41,-128,-7,1,-2,3,11
-6,-31,-64,-34,-11,-2,1,-3
-6,-9,-60,-5,-5,-7,-7,-12
14,32,127,15,1,-1,-13,11
-10,-11,-39,2,-12,-3,-7,-37
-17,-30,-53,-41,-18,-13,-27,-46
9,26,4,10,28,6,12,9
-1,6,28,22,9,1,3,-2
1,-3,18,15,3,0,6,5
5,6,38,15,-11,3,6,5
0,-24,-83,-30,-7,-2,17,-5
-32,-40,-128,-40,-12,-17,-23,-15
8,-24,-21,-6,-6,3,7,22
-2,8,75,20,7,3,-4,-7
-1,22,71,4,-3,-1,0,1
-8,-3,52,3,-9,-3,-4,-8
9,11,-20,-7,-18,-1,1,3
0,-18,-90,7,11,-4,-2,-2
3,40,90,41,21,-1,1,0
-10,-42,-128,-43,-13,-12,-7,-11
4,3,-15,-32,-7,0,2,0
2,12,20,3,2,1,1,1
0,-25,-73,2,-6,-2,0,0
-42,-47,-45,-33,-14,-12,-12,-28
23,36,64,10,0,7,4,26
-8,7,-4,12,-1,-3,-5,-11
0,59,4,4,2,2,3,3
34,6,30,8,3,5,9,29
-5,-11,-29,12,2,1,9,-14
-18,-28,-40,-25,-12,-14,-9,-18
18,34,119,29,5,5,7,25
-3,12,27,9,-3,-6,-4,-5
5,10,-47,6,6,9,8,0
-15,-37,-128,-43,-21,-14,-11,-20
-5,-24,-55,-19,-10,-10,-10,-8
-6,-15,-27,2,-3,-4,10,21
5,3,21,-2,4,-2,-10,-38
-14,-14,70,0,-6,-3,-30,-27
-14,-45,-107,-28,-12,-7,6,2
16,28,17,-15,-1,2,7,19
1,-28,93,33,8,3,10,8
-7,74,68,17,3,3,7,5
2,-22,-128,-40,-14,-6,4,7
3,-5,13,20,-7,1,-7,-2
-9,-16,-84,-30,-11,-3,1,-19
0,-4,-4,-10,8,-3,-3,9
-5,1,78,42,16,1,0,-7
22,20,92,61,6,4,11,27
8,0,-41,-5,3,-2,-2,10
-12,-33,-128,-29,-11,-8,-11,-7
-14,-17,-76,-18,-10,-4,2,-7
-1,11,95,24,5,2,1,-2
-9,-4,6,-20,-12,-8,-8,-10
-2,-10,-39,-24,-13,-2,-3,1
-10,4,54,-3,1,0,-3,-8
9,17,57,27,9,3,13,4
0,-22,-65,14,2,0,15,5
-7,-24,-90,-35,-5,-7,-13,-5
-5,4,96,1,0,-4,-13,-2
6,26,53,9,-4,-1,-2,-7
1,1,-59,-14,-4,1,8,10
-5,2,-39,-18,-10,0,2,-1
-16,-28,-43,-10,-9,-2,-2,-8
-2,8,30,5,1,-2,0,-5
11,17,65,19,11,5,-1,5
0,-12,-29,20,5,9,11,-3
-11,-14,-66,-10,-2,-3,-2,12
-7,-15,-14,-13,-9,-10,-17,-31
0,9,14,-10,-3,0,0,3
4,-32,34,3,-8,-1,-4,-10
7,55,20,10,-1,2,-2,26
3,12,38,18,0,2,15,12
-4,2,-5,-5,-2,-4,-7,-36
-17,-22,-49,-14,-9,-3,-21,-18
-1,2,33,-10,-7,-7,0,9
-5,-31,-89,-21,-2,0,23,13
-19,-36,-95,-25,-8,-9,13,18
-2,0,14,3,1,-1,5,5
3,9,33,14,4,-2,-15,15
-2,0,24,6,2,-12,-102,-97
-10,4,0,-12,-5,-5,-2,-14
-5,-32,19,21,0,-1,14,17
-2,43,25,-27,-4,-3,12,10
1,-5,-60,-4,-5,-1,10,7
2,-3,-3,14,3,1,8,12
-1,-4,23,15,6,2,9,12
-2,-31,-49,-19,-6,2,33,15
0,15,0,-12,-5,-4,-49,-66
-7,19,31,17,-3,-5,-9,6
4,4,79,4,4,5,10,11
-5,-17,-20,-17,-4,-2,12,8
-8,-22,-57,-45,-14,-9,-6,1
4,-7,77,4,5,0,-4,-8
6,15,17,26,2,0,2,4
-4,10,-50,-16,-10,-9,-2,2
-7,-3,20,13,1,0,-5,-2
-9,-22,-41,-6,2,-6,-14,-10
1,-24,-45,-4,4,2,4,15
-11,17,-1,-8,-5,1,-11,-51
1,18,27,-18,-8,0,1,-3
5,14,-2,20,5,1,3,2
2,14,70,31,13,2,5,-2
-5,-61,-128,-32,-10,-6,-1,18
-12,1,59,-5,-7,-9,-2,4
4,7,46,10,1,4,13,17
-13,-6,25,-10,-9,-11,-59,-61
4,-3,-3,-4,0,1,3,7
9,16,65,28,9,4,10,7
11,21,46,5,7,3,10,21
3,-24,-125,-25,-11,-4,-7,-2
5,51,85,27,7,4,3,6
-9,-68,-78,-12,8,-2,-3,-6
-32,2,-80,16,3,-7,-7,-14
-8,-13,-56,-50,-25,-12,-3,-7
0,-34,-128,-13,-6,0,4,10
3,32,41,26,6,1,9,-25
5,3,-6,2,1,4,-3,4
2,-3,52,31,-2,2,-13,1
3,0,30,6,0,-1,3,7
5,3,18,-13,12,6,11,-4
5,-6,-81,-14,-3,0,3,0
9,11,127,7,5,4,5,-2
3,11,-21,12,-8,-7,-17,-10
-25,-71,-113,-26,-15,-8,-7,-11
-6,-5,64,-16,1,-4,-2,-7
21,36,62,-8,-3,8,11,5
9,29,88,27,10,4,-5,-16
3,-4,-13,9,10,3,2,9
-5,-5,-99,-20,-16,-8,-3,-2
-7,1,3,-6,-5,-1,-10,-4
-5,-18,-84,13,2,-6,-4,-7
-4,-9,25,-20,-5,-4,-5,-5
-8,-19,-59,-10,-10,-1,-2,-3
-7,-16,-70,-4,1,0,-3,-10
17,38,127,31,7,6,10,12
3,1,77,5,-7,1,4,9
-22,-51,-128,-46,-11,-13,-12,-18
0,0,78,-17,-7,-3,-7,-7
-1,-7,-57,-33,-18,-4,-3,1
-2,3,58,48,19,0,-2,-3
-7,-7,-34,18,13,-4,-5,-6
1,11,-1,66,20,1,3,0
8,0,-34,-7,8,8,16,17
0,8,38,-12,-7,-3,-10,-10
2,9,36,3,-1,0,-9,-6
12,12,88,-11,2,5,13,22
-11,-21,-128,-43,-28,-10,-14,-17
-15,-23,-39,-18,-13,-5,-2,-1
1,15,-17,-14,-7,-1,-6,-2
12,23,104,8,8,7,7,4
12,20,108,45,8,3,4,4
-9,-34,-128,-13,-6,-5,10,5
-9,-38,-1,-25,-9,-10,16,6
12,20,70,8,6,-3,-14,11
0,-20,-31,-6,-1,6,-7,-27
3,39,-22,-1,-7,-1,4,3
3,0,-84,-9,-6,-1,7,8
3,-2,11,-26,-11,-2,5,6
8,-2,58,29,6,1,13,16
-6,-8,-38,-18,6,-1,1,-4
-5,-5,-24,21,4,-2,-13,-18
11,14,-16,18,0,-3,-9,12
-2,-45,-53,-26,-12,-5,0,-2
-11,2,-53,-4,-9,-4,2,-3
5,26,87,11,14,5,4,2
4,-18,8,11,3,1,8,0
-4,3,-127,-29,-10,-2,14,26
15,17,42,7,6,8,-15,-1
-3,-9,-60,-6,-4,-10,-21,-30
0,-7,88,19,-2,-4,31,36
6,32,127,39,17,9,22,19
1,5,1,-5,-2,-7,-31,-15
-19,-59,-128,-61,-22,-8,-4,-8
-5,-8,35,-13,-16,-5,-61,-62
7,9,76,2,-8,1,16,21
-2,5,-128,0,20,4,18,11
15,32,90,24,8,3,11,33
15,18,21,6,1,3,7,9
-30,-64,-19,-10,-16,-18,-14,-16
13,30,35,24,7,6,8,19
-1,-5,-26,-12,-9,-5,8,19
4,-2,-102,-24,-5,-1,16,15
-9,-25,125,-3,-7,-8,-70,-97
-10,-53,-40,-13,-6,-1,-7,5
-14,42,-52,-19,-9,-4,6,-13
-3,19,81,24,10,3,8,6
5,26,64,22,8,5,16,-16
-1,-12,27,-14,-8,-9,-12,18
-8,-5,-87,-14,-6,1,4,4
-2,10,-16,23,7,-2,-10,-3
-5,-4,45,13,1,-2,14,23
-33,-64,-5,-54,-29,-15,-37,-95
0,-19,-81,-23,-3,-4,14,14
6,-9,24,3,-1,-8,-20,-32
-12,10,37,15,5,4,-9,-12
-7,0,-53,-9,-1,1,1,-1
18,15,54,24,6,7,14,38
9,15,119,44,6,0,0,-2
2,7,59,21,7,3,6,-7
-24,-53,-128,-73,-27,-11,-5,10
12,15,127,7,1,2,6,10
5,19,6,13,2,-3,3,34
5,19,17,0,0,1,0,-8
-21,-34,35,-45,-18,-9,-21,-32
-1,-17,-128,-8,5,-3,-11,-5
-4,-15,80,41,15,3,-3,-6
2,-17,-128,-8,-3,1,4,18
9,-16,58,2,1,3,6,-16
-8,47,103,26,3,8,2,12
-8,-18,-128,-39,-12,-6,5,0
-16,-21,82,-16,-12,-7,-17,-38
9,1,111,-5,0,3,10,36
-5,-29,25,-27,-13,-8,-7,0
-6,0,-36,16,2,2,-1,-7
6,11,40,29,2,4,7,0
2,-7,-30,-3,-1,3,9,-1
6,-4,84,15,8,-5,-15,-4
11,49,-6,15,10,0,1,6
-9,-40,-128,-18,-10,-7,-3,-8
-8,-7,119,-12,-11,-5,-1,-1
-10,1,-9,-8,5,-2,1,5
6,-10,-115,-1,7,1,7,22
-7,-5,37,3,-5,-3,-12,-58
9,31,118,2,-7,-2,-28,-12
-20,-36,-128,-25,-17,-10,-7,-9
-16,-24,-16,11,3,-2,0,-2
12,6,24,9,5,3,11,17
-27,-45,-75,-57,-21,-18,-15,-25
-10,-15,-32,-7,-1,-2,1,6
0,9,8,18,3,11,1,-23
11,38,51,18,4,-3,-21,-2
15,25,-55,32,8,-3,8,10
-15,-38,57,-25,-17,-12,-10,-13
8,-2,111,0,0,7,16,31
-1,-8,-44,-23,-7,-3,2,-7
-11,-19,-119,-19,-11,-7,-5,-18
-3,-24,22,5,0,0,-6,4
10,53,83,29,14,4,10,19
12,18,77,17,6,1,-4,-4
-23,-56,-128,-62,-27,-12,-16,-40
2,-4,-10,8,1,7,10,17
14,26,97,14,1,6,33,40
12,21,51,23,12,8,1,13
-19,-7,78,9,-4,-12,-48,-61
5,-8,-95,-7,-5,-6,5,25
-4,0,50,-34,-15,-6,4,5
6,-19,-126,-10,-1,6,9,21
-1,18,127,53,20,-1,-2,3
4,12,127,4,5,2,5,3
-18,-54,-128,-62,-16,-8,-7,-15
4,8,69,-7,-13,4,3,1
8,-21,64,12,0,4,-3,2
6,39,32,33,14,2,2,6
-2,14,20,22,10,-4,-4,-2
-10,-27,2,-23,-12,-9,-5,-10
-6,-3,-91,-17,-7,-2,-8,3
4,10,42,-3,-3,-1,-1,10
7,9,-41,-7,-2,4,5,5
7,8,26,20,6,1,2,11
6,-7,-14,-1,-2,-4,-1,5
-15,-32,-128,-37,-12,-7,-4,-8
-9,-28,49,-4,-6,-7,-8,-5
21,42,35,11,7,4,5,11
-11,-55,-101,-29,-11,-2,19,5
-14,28,-69,-4,-2,3,2,-5
9,19,25,14,3,-1,-42,-11
11,24,55,21,4,5,11,0
2,25,98,38,10,4,10,9
-10,-16,-68,-39,-14,-6,0,-4
-17,-27,26,-12,2,-3,-6,-8
3,13,13,40,17,10,20,23
14,34,123,8,3,5,4,11
-12,-52,-128,-63,-25,-10,-19,4
-9,-26,52,6,-2,-4,-6,-6
16,29,112,34,9,3,7,7
-6,2,8,-23,-5,-5,-4,-11
3,-13,-31,-14,-7,-4,0,15
0,1,-25,-15,-10,-2,0,-2
7,13,23,30,6,3,7,19
3,17,54,29,9,1,2,-1
-6,7,73,14,-4,-4,-14,-30
2,-11,-115,-13,-14,-7,1,17
-12,-24,-24,-33,-2,-1,-4,2
4,9,-26,-13,1,0,3,3
-6,-52,17,11,-4,-8,-10,-15
-16,35,21,8,-1,-1,7,-13
23,35,87,21,10,1,1,18
-6,-12,-128,-34,-6,-3,0,-2
-4,-14,-62,-20,-14,-5,-6,-16
1,-1,20,-8,-6,2,1,2
5,14,48,13,3,2,6,0
5,18,81,9,1,-5,-8,-1
1,-24,-87,10,9,1,1,-3
-14,-12,-96,-7,-1,0,9,-4
-10,-9,63,-5,-8,-6,-6,1
16,14,33,6,4,0,-13,1
9,23,-36,1,2,4,3,22
1,11,101,-1,-7,-2,-2,0
-9,0,-6,-6,-6,-1,0,-9
-9,-28,-90,-15,2,-2,4,1
0,-18,31,-10,-3,-2,-1,0
-10,-38,-103,-5,-6,-5,-5,-8
7,26,36,-2,-7,3,10,-1
4,22,85,10,11,3,-2,3
6,21,63,26,5,-1,-1,3
-1,-7,0,-5,8,1,-1,5
-12,-24,-44,-16,-10,-7,-7,-11
1,-1,-22,-10,-6,2,2,6
-2,18,53,19,-3,-2,-6,-4
2,6,-8,-2,-2,-4,0,-5
-3,-10,13,-26,-7,-4,-3,-2
-1,-22,-4,5,2,3,2,0
7,66,65,18,3,3,7,6
14,2,33,8,4,-1,-8,-1
-14,-30,-128,-43,-17,-9,-7,4
-1,-6,46,-13,-1,-2,5,-4
15,25,78,39,11,2,11,26
-7,-17,3,-13,6,3,-4,-2
3,-6,17,-4,-3,1,1,2
-10,-59,-128,-7,-6,-4,1,-6
-1,31,69,1,-3,-3,0,1
6,31,47,4,5,2,1,-5
-7,-16,-24,-12,-9,-2,-9,7
-9,-12,-73,-13,-3,0,4,7
-13,-9,3,7,3,-3,-12,-17
17,12,51,10,1,-2,-9,0
-15,-11,-25,-11,-7,-5,-11,-14
5,11,46,2,2,1,2,5
3,5,31,-18,-4,1,0,1
3,15,-31,17,1,1,4,14
-17,-44,-115,-1,-5,-9,-5,-12
0,-7,23,-3,3,3,-1,1
8,12,3,-2,-1,-1,2,2
-7,-12,-21,-10,-5,4,3,-5
-11,-20,29,-11,-6,-5,-3,-3
-5,-6,19,-10,-6,-3,-4,-10
5,23,52,37,9,2,3,7
-2,-4,23,-7,2,-4,-4,-9
-2,-5,-37,-8,-3,-2,-3,-5
-2,3,-14,-6,-1,-3,-4,-14
0,20,37,16,0,1,0,5
-5,-6,-110,-31,-15,0,-1,-4
-8,-23,82,-22,-1,-3,-6,-7
6,-7,-68,-19,-5,1,5,8
3,-41,-68,27,8,-2,-9,3
-1,48,16,29,7,-1,-7,-4
-2,23,95,12,-5,-3,-2,-2
-5,-6,43,-8,-3,-5,1,-2
-2,-32,-127,-33,-9,-2,-1,-1
1,13,44,-4,-4,4,-1,6
7,-31,77,12,0,2,4,1
3,37,2,-2,-1,1,5,10
-5,0,-57,-11,-4,-1,4,4
-3,-14,-33,0,-7,-8,-28,-32
-6,-7,60,10,2,2,5,5
-1,-4,-8,-18,-3,-3,2,2
2,-24,-128,-27,-7,-2,1,-1
-5,6,51,6,1,-3,0,-8
4,-3,-65,-1,-2,1,8,10
9,11,14,5,-2,5,2,6
-1,2,21,9,4,1,-1,0
-10,-13,2,-6,3,-3,-3,-6
-2,-5,-64,0,1,-7,-3,-2
0,-2,15,7,4,0,-1,-2
0,-6,17,18,-4,1,0,-1
-5,-10,-36,-19,-4,-3,-4,-2
3,13,33,-12,-4,6,2,-2
1,9,11,36,7,2,8,10
-4,-25,-98,-16,-9,-6,-10,-9
-9,-23,-7,-20,-8,-6,-4,-4
6,15,83,26,4,3,1,9
2,21,97,6,2,0,0,-3
-16,-16,-121,-42,-9,-5,-7,-14
7,-12,-51,-9,0,-6,3,5
9,-19,-112,5,-1,6,9,20
-8,6,47,9,-2,-2,-6,-10
12,20,46,15,3,5,2,9
4,20,40,24,4,0,1,-2
-2,7,38,-12,-1,-3,14,19
0,6,11,-16,-9,-3,-5,-10
-9,-27,-69,-4,-1,-4,-16,-10
1,-1,-43,-7,9,-1,-2,-12
-5,-25,-58,-30,-9,-6,-1,-7
8,26,88,27,8,7,7,23
4,-7,-11,3,5,-2,7,14
-1,-56,-56,-34,-13,-7,-12,-19
0,68,63,19,3,2,3,1
-5,-5,23,23,-2,-1,-4,-2
-12,-25,18,2,4,4,9,12
4,14,-49,-23,-6,-4,-9,-12
3,-33,-86,-17,-7,-1,3,6
1,28,63,12,-2,-7,-10,2
12,27,40,10,10,1,2,11
8,-12,66,26,7,-1,0,3
-8,-7,-63,-16,-5,-3,0,-8
-19,-31,-106,-61,-23,-10,-14,-12
-2,-3,56,18,4,3,3,4
6,11,77,13,4,0,0,3
-15,-16,5,-3,-4,1,2,-1
5,-7,-54,-19,-6,1,5,2
-14,-17,-83,-7,-6,-10,-23,-12
2,2,19,7,9,2,5,5
-16,-20,33,-2,-6,-7,-8,-6
5,9,5,7,2,2,2,2
10,13,21,2,-1,0,-1,5
-3,2,-17,4,-4,1,-3,0
4,6,-62,-9,-8,-6,0,-2
9,11,127,10,4,2,6,14
10,4,22,24,9,6,7,16
-8,-9,-17,-20,-2,-2,-18,-15
-12,-23,-128,-31,-7,-10,-23,-25
-1,-2,24,-14,-2,-2,3,1
7,11,70,17,0,9,6,8
4,27,79,15,4,1,7,12
0,-17,36,-7,-5,0,-4,0
-17,-18,-10,-23,-11,-11,-23,-41
6,4,42,7,4,0,7,4
3,-2,70,17,9,1,5,18
-8,-11,10,22,-6,-2,-1,-4
6,-29,-2,3,4,-2,-1,-3
-3,40,31,0,8,4,1,-1
-19,-8,-6,-2,-2,-7,-2,-9
0,2,-53,1,2,0,-7,-6
12,18,127,25,7,6,5,-1
0,-39,25,13,-1,1,8,11
0,29,-128,-54,-17,-6,-9,3
-15,-15,19,-1,-15,-8,-11,-24
9,12,90,30,7,4,3,5
-10,-30,11,-13,8,-2,-7,-5
3,-3,-71,-29,-8,-1,4,2
-10,6,7,-5,-3,-5,-4,-6
2,4,29,11,-2,1,0,-10
6,12,71,16,4,5,3,-2
2,-8,-6,17,2,0,-2,20
-5,-16,-13,-31,-4,-6,-4,-3
-11,-10,-69,-22,-6,-5,0,1
3,0,52,25,5,3,3,-6
10,11,25,23,4,5,9,13
-2,0,-88,-10,-9,-4,-2,-7
-2,-24,13,-21,-9,-4,-9,-7
12,64,90,22,7,4,3,7
-9,-10,-23,-5,2,-5,2,-9
-2,-29,-44,-31,-8,-3,-3,6
4,0,76,2,2,9,7,3
13,28,75,56,8,4,1,16
2,6,8,-4,-5,0,-2,6
-5,-15,9,-31,-11,-4,-6,-9
-8,-22,-128,-18,-1,-5,-2,-1
5,-36,23,14,13,1,3,5
1,59,35,2,-1,-2,0,0
0,22,34,14,1,1,3,-7
0,1,71,26,3,3,4,0
-8,1,15,-16,-2,-1,-5,-3
-14,-5,-128,-48,-8,-7,-11,-14
-4,-11,33,-8,-6,-2,0,-5
5,11,72,29,5,6,-6,6
-14,-35,-128,-22,-9,-4,-2,-17
-2,-8,19,-10,-5,-4,0,-6
0,4,38,12,4,-1,-10,-4
3,-2,-33,-3,-2,-4,0,-1
4,-1,8,-4,-1,0,3,4
2,6,0,-5,-6,-7,0,1
-12,-3,34,5,2,-5,-3,-4
5,3,-23,25,5,-1,-5,6
1,-6,2,7,3,0,1,2
14,-1,60,13,-1,3,0,-1
-6,28,-48,-19,2,0,-1,-1
-2,1,-46,-39,-13,-5,-5,-7
-4,-23,-32,-36,-13,-1,-4,-2
-1,10,54,15,0,0,4,-2
-6,-3,35,13,4,0,-3,6
-4,-2,12,9,-3,-1,-1,-10
-4,-7,-11,-6,-7,-5,-2,3
5,12,36,-10,-4,-1,-1,7
4,-1,60,33,11,1,0,-5
-1,10,-41,6,8,2,-1,3
-23,-31,-46,-40,-21,-12,-18,-10
3,1,-13,-11,-9,-1,0,-12
3,-17,22,3,0,-1,-8,2
3,4,31,9,2,3,4,7
-6,-3,-128,-20,-10,-7,-6,-3
4,11,59,8,4,2,3,0
-11,-8,0,-9,-2,-1,-5,-11
4,-20,53,13,2,0,4,3
1,46,14,-13,4,1,0,-6
-12,-26,11,-7,-10,-3,-6,-7
-3,1,-49,18,1,0,1,-2
-6,-4,-50,-4,-1,-2,-5,-6
10,5,74,3,-3,-1,1,9
-3,-1,15,-4,-3,-4,-8,-6
4,-18,37,20,7,1,2,6
5,55,42,7,0,2,6,3
-13,-19,-59,-40,-15,-8,-2,-14
12,8,36,2,0,5,-1,29
-2,-9,-7,4,-6,-6,-14,-18
0,-2,30,11,5,-2,1,-1
1,8,1,-7,-9,-5,-1,-3
-7,-25,-58,-13,-2,0,-2,-5
2,17,22,-2,6,0,7,-4
7,9,21,6,-4,-3,0,15
1,7,80,4,0,0,2,-11
-21,-34,-121,-42,-2,-8,-9,-6
-7,-8,-8,22,0,-2,2,-3
2,12,26,7,-5,-2,0,-1
-7,-59,-12,-19,-17,-13,-13,-9
1,48,20,14,5,0,1,-1
6,-8,11,-35,-5,4,3,9
8,11,32,21,2,-1,2,3
-3,-13,80,16,-1,-4,2,-2
3,6,-24,-6,4,1,-3,-1
5,-19,-118,-11,-5,1,5,12
-12,-34,27,-13,-5,-2,-2,-24
-3,21,22,7,1,-1,-3,8
2,18,88,41,5,4,3,-6
-4,-10,-24,-34,-7,-6,-2,-3
4,-2,-26,-36,-6,2,0,-7
5,2,-20,-3,8,-2,1,17
-2,-6,-49,6,-2,1,2,1
-16,-22,4,9,-2,1,-7,-9
5,0,27,2,-7,-5,-10,-6
-2,0,44,10,1,-3,0,5
7,18,-11,-7,-1,0,2,8
0,1,61,4,-4,-3,1,0
-17,-36,-105,-27,-10,-9,-9,-20
1,16,1,-8,-2,-2,-4,-10
4,-1,2,16,6,3,1,7
-4,2,11,-13,-5,-1,-1,-1
-2,6,43,1,1,0,-1,-2
-11,-36,-21,-11,-6,-5,-4,-6
-2,3,-28,-10,-4,-3,1,-6
0,15,17,12,4,-1,-4,0
0,5,5,9,-1,-4,1,1
-7,-38,17,-1,-2,-1,-5,-1
2,44,15,0,4,0,-5,-18
4,0,-26,-7,-5,-3,-7,6
3,0,21,2,1,2,1,8
10,10,26,16,7,6,17,9
-20,-37,23,3,-13,-14,-32,-16
4,43,22,2,0,-3,2,8
-19,-35,-73,-48,-8,-10,-5,-12
-7,-6,31,-8,-1,-2,-4,-12
-12,-30,-104,-13,-8,-1,-2,-5
0,-9,1,18,6,3,-5,-3
3,24,50,20,3,1,0,-2
3,5,-3,-7,-4,-3,-1,4
-7,-27,1,-10,-9,-8,-8,-8
-8,-3,-81,-5,-3,-4,1,-13
3,5,42,-3,-2,1,-8,16
-7,-3,20,-11,-5,1,-4,-13
-4,-29,-44,2,1,-5,-4,16
0,23,32,11,3,-2,2,3
1,-1,4,-7,-7,-6,-4,-6
5,14,18,6,-2,1,7,-7
16,21,41,-3,0,6,10,26
-15,-22,-26,-1,0,-5,-1,-4
8,-7,-13,9,1,-3,-16,-17
6,21,55,-8,-1,3,5,19
-10,-6,-128,-26,-7,-9,-15,-23
3,-12,24,-7,-4,0,0,0
0,7,49,2,-2,0,-1,-4
-5,-8,18,-2,-2,-4,-4,-5
6,11,46,-1,0,-3,3,7
-2,-8,-8,-2,-7,-3,0,-6
-6,-7,-9,1,0,-1,1,-4
1,2,-2,9,3,6,6,2
11,2,-1,5,4,5,7,12
18,24,25,5,0,0,8,7
9,9,40,9,9,6,5,18
-9,-35,-70,-4,-6,-9,-4,-11
-5,11,6,-13,-3,-3,1,4
-2,-5,-110,-22,-8,-6,-7,-7
0,-32,60,-3,1,-4,3,-4
5,19,1,17,4,4,8,5
2,7,38,19,-4,2,4,-2
-2,-10,-79,-40,-4,-6,-4,0
-11,-21,-19,-28,-6,0,-4,-9
-6,-2,41,13,-4,-5,-1,-12
14,32,91,30,2,3,11,7
-4,-45,16,-8,-2,-7,-4,-1
3,12,-128,-22,-8,-5,-5,7
1,-7,60,7,2,5,5,8
-9,8,56,3,-1,-2,-4,-19
-14,-9,-64,-12,-4,-5,-23,-13
7,6,76,33,-2,-2,-2,7
2,10,59,-9,2,-3,-2,-4
-15,-12,-82,-30,-2,-1,-2,-4
2,16,39,19,2,1,-3,-5
-6,4,-22,-3,-5,1,-3,-14
-10,-7,-13,-16,-8,-5,-4,-5
2,2,27,-4,-3,0,1,0
1,-4,8,3,1,0,-1,3
-8,-13,-99,-2,0,2,-2,-6
2,4,50,4,7,2,2,3
-4,-24,-51,2,-1,-4,0,-4
6,19,9,-13,0,0,4,13
-4,-3,18,0,-8,-9,-19,-9
4,12,69,15,0,0,-2,3
-4,1,-22,-9,-2,-1,-2,1
-19,-64,-128,-36,-9,-5,-6,-11
5,30,39,13,-2,-6,-6,-9
-1,-27,-32,-13,1,0,4,-8
-1,49,-49,-1,-4,-6,-6,-4
3,4,46,30,3,-4,-1,2
7,26,48,13,8,3,3,2
-14,-26,-79,-36,-14,-7,-7,-12
-9,-44,-89,-13,-9,-7,-6,-7
2,0,-34,-6,-1,1,-1,-4
5,9,34,-7,-1,1,-6,3
1,10,48,26,11,3,2,-4
6,9,17,24,3,1,1,6
0,11,-15,8,4,5,7,-9
-2,8,5,-4,0,-4,-7,2
0,-17,3,-24,-12,-9,-2,6
3,-75,-19,-18,-8,-1,4,-20
5,83,18,2,3,-4,-7,8
3,14,77,17,6,-2,1,-11
6,5,-43,4,-6,-4,-4,-11
-13,-3,-62,-5,-6,-3,-6,-3
4,4,-12,-4,0,2,0,-1
2,-6,5,-9,-6,-1,3,7
-14,-28,-115,-18,-4,-2,-8,-11
2,-5,-65,-13,-5,-1,1,3
-6,-3,8,-7,-4,-4,-3,-4
-9,8,58,35,6,1,3,-5
10,17,8,4,4,0,-3,11
-10,-14,35,-47,-21,-10,-10,-11
0,-25,15,19,0,3,-1,-10
8,34,-17,6,6,5,9,10
6,-4,-25,1,4,-1,3,13
-3,-5,16,-2,-9,-7,-6,-3
-9,0,-24,-16,-7,-7,-10,-5
-8,-29,4,-4,-5,-6,-7,-13
5,35,-17,-2,1,-3,3,8
-8,-5,-6,3,2,-4,-5,-14
-2,-34,33,16,3,4,-2,-1
0,32,-4,-14,-1,-4,-6,-2
-6,-28,-76,-13,-6,-2,-3,-6
-4,-22,14,-2,-6,2,-3,2
-6,-5,-73,-19,-3,-3,0,-6
-6,-2,57,10,2,-4,-3,-3
0,5,10,23,6,-1,-5,-7
-2,0,68,-3,-2,-5,-1,-3
2,-11,-77,-31,-4,-4,4,4
5,11,9,19,1,0,2,8
-11,-22,-30,-12,2,1,2,-6
0,-10,3,-26,-12,-2,2,-2
16,16,38,18,3,10,10,21
5,17,23,9,3,-1,-7,17
-1,-21,-36,0,7,2,-3,6
-3,4,23,-3,-7,-2,4,-1
4,9,4,9,0,1,-2,-7
-3,-23,-10,-22,-2,-7,-9,-4
8,43,8,35,11,5,1,2
-1,-17,15,2,2,1,-3,-5
-7,13,-47,-19,-9,-4,-3,-3
-11,8,35,12,6,3,4,-3
-8,0,46,13,1,0,-7,2
-9,-49,-128,-32,-9,-4,-2,-1
-6,2,62,-7,0,0,-2,-7
-1,-17,63,-20,-10,-6,-5,-1
-6,-8,-76,-1,-8,-9,-6,-9
9,13,38,10,3,-1,0,1
10,22,37,4,7,2,0,1
2,7,16,13,0,-1,2,6
-7,-13,-12,3,1,-3,-4,-4
7,-28,27,3,2,6,5,7
0,27,-6,-16,-3,1,8,5
1,27,-32,-9,-13,-6,-8,4
7,2,-19,-15,-3,2,2,7
-3,0,24,3,4,6,5,4
-2,6,87,43,6,-2,1,4
-4,-11,-62,-18,5,-1,-4,-12
-2,-26,-50,-56,-20,-9,-6,-4
7,-1,2,2,0,0,-3,1
9,11,35,27,5,1,6,0
3,11,56,28,-2,-4,-2,1
6,8,-17,8,7,6,13,-3
-1,-21,-38,-12,-6,-5,-7,25
-10,-24,-114,-14,-5,-5,-8,-13
2,11,31,-13,1,-5,1,6
0,-12,43,10,3,0,1,-1
6,20,34,0,2,-5,-1,-6
11,8,-25,1,0,7,10,20
-5,-20,-33,-17,-11,-7,-8,2
-8,-5,34,5,-5,-3,-5,-17
-1,-5,-48,-3,4,2,5,-10
-2,22,3,25,6,2,-4,1
0,-7,47,-7,-6,1,-1,1
-22,-22,-103,-20,-10,-9,-6,-21
-2,-5,5,-9,-1,-1,-1,2
-12,-7,24,-15,-6,0,-5,-11
3,-18,1,-1,4,2,1,5
13,41,45,20,5,2,-1,2
-11,-8,-27,8,-1,-6,-8,-9
4,-1,53,5,-1,-1,-1,-1
-7,-2,-53,-15,-4,-3,-2,-10
1,-3,-15,-19,-10,-5,-1,-11
1,-30,-11,14,1,1,-1,10
-9,-26,-55,-13,-9,-5,-7,2
1,-40,31,-8,-2,3,3,-4
5,62,-1,10,7,1,2,2
11,17,96,17,5,0,5,4
-4,-15,0,-8,0,-3,0,-10
-2,-27,-128,-12,-8,-1,2,2
4,-46,59,-15,4,-1,-2,0
-1,38,-32,-7,-7,-3,-1,-4
7,16,51,14,4,1,2,3
-6,-2,9,5,-4,-1,-5,-9
-9,-20,-114,-13,-4,-3,0,-12
9,14,47,13,2,4,6,14
2,11,42,14,2,-2,-2,2
-5,-5,-64,-21,-3,0,-3,-4
-2,-4,54,-13,-8,-1,1,-5
-1,1,11,-2,-4,-5,-4,-7
-1,-18,4,11,3,-1,-4,3
-9,-10,29,-16,-2,1,-3,-10
-3,20,-35,22,2,-2,2,2
-4,3,3,4,2,0,-6,-4
-5,-16,-25,-13,-5,-5,-9,-7
0,2,27,-7,-7,1,-1,-2
6,11,21,2,6,3,1,7
-12,-11,11,-4,-2,2,1,-10
-6,-23,-28,-36,-11,-12,-14,-8
-2,-7,32,6,-1,1,3,6
1,8,-37,-5,-4,0,1,-12
7,18,52,24,7,-1,-2,2
-13,-6,-2,-1,-7,-5,-7,-8
-13,-18,-67,-25,-4,-3,-3,-10
5,0,-16,-7,-10,-4,1,4
-16,-8,6,9,-8,-6,-9,-12
5,-1,-35,-15,6,6,3,-2
15,-12,70,11,4,4,1,8
3,38,107,39,13,4,-1,-5
-11,-58,-128,-63,-21,-8,-2,-6
-18,32,-13,-34,-14,-6,-6,-4
10,9,37,26,4,-3,7,2
5,8,48,21,13,7,5,7
1,7,15,0,-7,-5,-5,-19
4,-5,-66,-27,-2,1,10,26
1,-2,11,8,7,4,2,0
10,6,19,9,2,0,7,2
4,0,86,-2,-7,-8,-8,15
2,-42,-30,-16,-4,-4,1,0
6,68,-23,14,10,4,3,5
-23,-12,-103,-11,-4,-7,-14,-33
2,-8,24,7,2,-1,-5,-3
-9,-2,-18,-9,-6,-3,2,1
-7,-2,22,-20,-6,-5,-5,-7
-5,-12,-10,4,1,-3,-3,-4
5,0,7,14,4,3,4,-3
1,-3,-1,-9,-1,-2,-4,1
-6,-14,20,-4,1,-2,-1,-7
-9,8,-5,4,-4,-4,-4,-8
5,6,14,0,-2,-4,3,-5
-4,8,85,35,8,-2,-13,-20
2,2,-27,-29,-14,-4,5,8
-8,-20,-66,-24,-8,-2,0,-7
-3,-4,2,-5,-4,0,-7,-7
-13,-24,-2,4,-5,-8,-7,-8
3,18,36,-4,5,-3,1,1
-1,4,38,7,0,-3,0,3
-1,-9,2,5,-2,2,3,4
6,15,-4,-1,7,0,-1,-1
3,-23,-3,1,-5,-3,0,-2
-6,27,24,13,8,4,-1,-3
-4,3,-39,-10,-5,-2,-6,-1
-4,-11,16,-20,-16,-8,-6,-8
7,-2,39,13,-7,-1,1,2
5,4,-15,25,4,3,4,3
3,-9,-99,-45,-1,-2,4,-4
23,-1,30,-3,3,7,13,17
9,33,56,11,1,-2,-11,21
2,11,41,6,-4,-4,6,5
-4,-27,-64,-5,-7,-6,-7,-7
-14,-29,-44,-8,-4,0,-5,-10
-1,-11,-40,-6,-1,0,-6,-15
-5,11,25,-2,-2,-1,-3,-9
3,20,37,20,4,5,4,3
-2,-1,14,-2,-3,-6,-8,-4
3,-10,-29,-8,-3,-2,3,9
1,9,25,-2,-5,-1,4,12
-5,16,-64,-6,8,4,1,-4
1,3,-11,-5,-6,0,4,9
2,-7,-67,11,3,1,0,0
-7,-41,22,-4,-4,-5,-6,-8
-4,47,0,0,-2,-3,0,-3
1,2,25,-15,-1,-4,-2,-2
6,9,4,12,-1,3,4,6
-11,-8,-8,-6,-4,-3,-8,-14
3,-6,-40,-6,-4,-1,8,5
0,-3,20,-2,-1,2,-10,-12
-2,-9,27,6,-2,-5,-5,14
6,-10,-47,5,-2,1,2,16
-11,3,5,-20,-8,-6,-10,-22
-2,-24,25,7,-1,-1,-1,-1
-1,49,-18,-11,-4,-5,-2,4
-4,14,17,7,-2,-2,-7,-11
-13,-19,-18,-10,1,-1,-1,-12
-1,-14,-21,0,-2,-2,5,1
0,3,-22,-9,-7,-2,-6,3
-1,8,60,19,3,0,-4,0
4,6,62,18,5,6,6,-19
-4,-46,-128,-23,-7,-4,-1,12
-12,22,-7,-22,-14,-7,-13,-12
-7,-5,-14,4,-4,-4,-5,3
-1,-4,14,-13,1,1,1,1
3,13,66,16,3,0,1,-1
2,2,-8,2,0,-4,2,-2
0,-27,-94,-7,-1,-2,1,-5
-9,30,-13,11,0,0,1,-5
-11,-17,39,-8,-6,-3,-5,-11
3,19,28,-2,2,3,4,2
-3,-3,38,10,2,-3,-4,1
0,4,-27,-7,-1,-2,-6,-9
-4,-12,-30,-6,-1,-1,-3,2
-8,-22,-20,-14,-11,-5,-4,-4
-1,-53,-5,0,-2,2,6,3
-3,-12,47,19,2,-3,-8,-3
-5,62,8,-2,0,-2,-2,2
22,14,-61,-21,-4,0,-5,-3
-35,-117,20,12,-6,-2,2,-4
-8,-58,-107,-17,-1,-4,-1,-9
5,12,61,9,4,7,9,5
-7,-15,14,0,1,-1,-4,-7
-3,0,24,-20,-9,-5,-5,-2
-5,-6,-33,4,-1,-1,2,8
-3,-11,15,5,-4,0,-4,-9
4,14,8,4,2,-2,-3,-2
-12,-1,-21,-10,-4,-5,-6,-12
4,10,36,9,0,1,3,3
2,2,-30,3,-5,0,-1,-1
1,0,26,1,-1,-5,-2,-5
5,10,51,-1,1,0,4,-5
-11,-10,-29,2,1,-3,-8,-8
-3,8,-9,-7,-2,-2,-2,-6
-4,-41,-62,-17,-8,-5,-6,-2
-1,35,12,12,-3,0,-2,0
1,1,53,-5,2,0,-1,8
-2,-2,64,-2,-2,-2,-5,6
-20,-48,-128,-11,-7,-6,-9,-8
-1,24,0,-13,-6,-5,-3,-2
-4,-4,17,10,-1,0,0,-4
0,-25,-8,-24,2,-1,3,7
-3,36,31,14,1,-1,-4,2
0,-46,-35,10,-4,-2,-6,1
-1,31,-25,-1,-3,1,0,-4
-6,-3,1,0,1,1,-3,-1
-5,-15,28,10,-1,-5,-1,-1
6,16,-29,-5,-1,1,-1,3
1,-14,49,7,-2,-2,1,4
0,15,-9,9,8,0,-3,1
-13,-44,-24,-5,-5,-1,-1,-6
-2,-23,-54,-27,-8,-4,-3,-3
4,10,47,12,6,4,9,5
2,-1,68,20,1,-2,-5,-3
-5,54,-7,1,0,-2,-4,1
3,-1,-78,-13,-8,0,0,-10
24,10,-21,-22,-2,0,9,22
-12,-13,-15,-26,-4,-6,-16,-13
7,14,41,27,9,6,7,7
2,-31,-31,-8,-2,-2,-2,3
-16,6,5,-19,-8,-8,-8,-10
8,48,-10,6,0,1,7,7
3,9,7,21,3,-2,3,10
6,4,12,2,6,-2,0,0
4,-15,62,3,-1,1,3,0
0,32,6,-11,-4,6,0,-3
1,-12,-108,-14,-5,-5,1,3
-27,-52,-62,-16,-14,-13,-18,-31
4,7,40,6,6,3,2,8
0,-13,33,11,3,-4,-7,-16
7,25,31,16,4,4,4,8
0,-2,23,-9,0,-4,2,-3
7,-25,19,1,5,3,3,4
-7,60,-42,12,2,2,-2,-12
5,-10,-52,-19,-10,-5,-4,9
-20,-18,-69,-26,-10,-8,-10,6
0,6,36,15,1,3,1,0
-1,-4,-46,-10,0,-5,-3,-4
7,-9,10,-9,5,7,7,10
3,7,41,14,0,-1,-1,3
-12,-2,18,-6,-5,-2,0,-5
-10,-14,-19,-24,-5,-9,-2,-6
1,2,6,7,1,2,-5,0
2,-6,41,7,4,0,0,0
0,3,-21,-3,0,1,5,1
-2,-1,-18,-2,1,0,2,2
-2,-43,-25,3,-2,-4,-7,-4
-1,23,-20,-4,4,-1,-5,-1
-9,-22,57,-6,-5,1,-3,-7
1,-4,-23,-7,-8,-3,-6,4
-2,-8,-41,-5,0,1,0,1
14,5,43,18,6,3,6,8
6,41,37,11,1,-4,-5,-5
-2,-13,-45,7,-3,-2,3,1
-12,-2,-53,-36,-10,-7,-9,-13
-14,-20,51,-31,-11,-9,-8,1
-1,-24,-75,-12,-7,-4,-1,1
0,1,61,-1,1,-2,-3,-2
6,11,55,17,4,0,-1,-4
-10,-11,-34,31,3,-1,0,-14
-2,-2,-23,3,1,-1,1,4
-2,-15,11,-4,-4,-4,-6,-4
2,6,16,-22,-6,-6,1,0
-9,8,-42,-21,-4,-4,-3,-5
-15,-9,-53,-8,3,-4,-9,-14
5,-30,46,8,-7,-6,-9,-3
6,56,53,26,9,2,3,1
-12,-7,-65,-5,-5,-5,-10,-10
-4,-16,-67,-19,-10,-2,-1,-4
5,33,12,-4,-4,-3,0,0
2,-7,19,13,3,5,-4,-2
0,0,54,28,1,-2,2,2
1,-3,-68,-23,0,-6,-5,-5
-7,-10,-60,-40,-5,-5,-6,-10
3,-1,6,1,3,5,6,9
1,-33,36,0,-3,-8,-14,-11
1,79,10,8,-1,2,5,-1
7,-10,9,7,0,0,2,6
2,8,1,5,-1,-1,1,-4
27,23,-22,-4,1,0,-2,4
-12,-17,6,0,-6,-5,-8,-12
-6,-12,-11,-10,-4,-5,-2,-5
2,-8,1,-4,0,0,1,5
-2,1,33,25,-4,1,0,-8
-4,-10,-35,-17,-3,-4,-7,0
2,-28,30,-14,1,-1,-2,4
19,28,14,15,3,4,7,10
-1,-17,-113,-25,-12,-7,-8,-4
-10,-16,4,3,0,-1,-1,-4
9,-15,47,17,5,1,6,-1
15,39,-35,-7,-1,1,3,21
1,-6,24,-6,-4,-4,-4,-1
-12,2,-5,-23,1,1,-2,-6
1,16,-1,12,-1,1,3,-2
3,11,11,6,2,-1,-1,-4
-2,-6,-17,-3,-7,-6,-3,-4
-1,-5,-38,7,0,-1,6,-1
-8,-16,1,-18,-5,-3,-4,5
3,10,35,8,8,2,3,-3
2,23,32,12,-3,-3,-1,2
9,-26,2,-11,4,2,3,3
1,4,24,6,-4,-1,-5,-2
-11,-32,-7,14,-8,-8,-9,-16
-8,42,-3,-15,-2,0,-1,-8
-11,-19,-65,-25,-9,-5,-4,1
-4,-7,-100,-7,-5,-4,-8,-3
4,10,89,16,5,1,2,1
-9,29,-37,0,3,1,-3,-17
13,2,14,15,4,5,3,1
-14,-26,-16,-7,-7,-4,0,-23
8,12,-38,-10,-4,2,-1,14
0,-16,69,-1,0,-3,-4,-2
-4,-1,-120,-6,-7,-3,2,-2
16,18,39,3,0,-3,4,7
2,-3,-16,-3,0,-5,-6,-14
2,0,15,3,-3,3,1,9
13,13,-12,-4,-7,1,6,14
-4,1,27,-5,-4,-3,-4,8
0,0,15,5,7,1,2,-1
15,4,70,9,-3,-4,-6,-15
14,18,-52,32,-2,-1,4,7
-14,-14,-35,-41,-5,-7,-10,-13
-18,-64,-29,-41,-4,-2,-3,-7
-10,36,42,21,3,-4,-13,-7
9,46,16,28,7,0,4,4
-2,-42,-15,-4,-5,0,1,-5
-14,-10,45,-9,-9,-8,-7,-8
-4,-19,8,6,3,5,3,1
-8,76,-6,4,2,0,3,-3
-11,-30,-12,3,0,1,-5,-6
12,7,29,3,-1,3,4,15
1,-3,-14,-3,-5,-6,-5,-7
1,-15,22,7,0,1,-2,0
4,17,24,0,3,3,4,-3
-6,-8,-3,-6,-1,2,-3,-1
-3,-10,-55,-15,-8,-6,-4,1
7,-2,-20,7,1,-1,4,4
-1,22,60,11,-1,0,5,2
-9,-25,-31,-24,-10,-10,-13,-4
-5,0,-7,-7,-2,-2,-5,-23
10,2,8,4,7,2,3,16
1,0,-97,0,2,2,6,12
-10,29,-6,1,-7,-3,-5,-8
14,4,1,-3,5,-1,-1,1
19,34,53,31,10,8,14,14
-5,-12,115,-15,-14,-8,-16,-13
-8,-19,-128,-35,-9,-5,1,-2
-5,-12,-2,1,1,2,2,2
-12,-45,19,2,1,4,2,-6
0,52,29,14,6,2,0,-1
2,21,10,7,1,-3,-6,-4
1,-10,11,2,-4,-4,-4,1
-14,-26,-74,-1,-2,-3,2,-7
2,6,41,-1,2,-3,1,1
15,5,-40,-4,5,0,6,-4
-10,44,-68,-35,-15,-6,-8,16
7,-60,104,18,-2,0,4,3
-4,-5,-80,14,1,-5,-2,1
-23,-2,-24,-37,-2,-4,-6,-7
17,-3,18,7,9,4,5,-6
0,28,63,10,-6,-1,-5,5
3,-62,-30,22,5,2,-3,-7
4,-36,-57,19,0,0,-1,7
-1,10,-2,-11,-8,-5,-4,2
0,-11,-16,-45,-16,-6,-1,-7
0,16,61,14,1,-3,-2,-9
-7,-4,-100,-10,3,-1,-1,-6
4,-4,2,-11,-3,-1,0,6
4,5,-24,8,9,0,-2,3
-5,2,16,7,-6,0,3,-2
9,-11,24,8,-3,0,3,9
-5,33,11,2,0,1,3,4
-15,-9,-52,-16,-4,-6,-15,-24
-3,-13,-54,-10,-7,-6,0,5
1,27,95,6,-1,1,3,0
-11,-55,-67,-15,-9,-5,-5,-10
-3,31,-41,0,-2,4,6,-1
9,27,39,-8,7,1,-2,9
8,11,19,3,-1,-1,3,4
1,-36,7,-4,-5,-2,3,10
9,40,36,12,7,-2,-4,-1
-15,-27,-68,-22,-8,-6,-4,-8
5,12,2,15,1,1,3,3
-29,-79,8,-7,-4,-5,-8,-8
-11,12,27,-13,-1,-1,-2,-2
-1,5,12,-6,-3,-1,-3,-13
-2,7,11,17,3,0,1,-2
2,11,18,4,12,2,-1,4
-3,-9,11,5,-1,-1,-10,-10
-2,-47,-73,-19,-16,-6,-4,2
-11,-2,3,-12,-7,-7,-2,-12
1,3,23,9,-1,2,4,16
-3,-20,44,11,5,-1,-2,-5
-5,-3,25,5,3,-1,0,-11
0,-16,-78,-13,-2,3,0,4
0,3,14,3,0,3,3,1
5,-13,4,-1,4,-5,3,-4
3,21,-25,-32,-6,0,-4,18
1,-8,-15,0,-6,-6,0,-3
-2,-7,37,15,-1,-2,-6,1
6,21,-4,-4,0,-4,1,1
-6,-23,-10,-7,0,0,-1,-3
4,3,-35,14,6,4,1,5
2,0,-6,-12,-6,-7,-2,1
-2,-15,-11,-15,-2,-3,-1,-2
-3,-2,-8,-8,-3,-1,2,-3
-1,-38,47,11,2,-1,-2,0
4,22,5,9,2,1,1,1
-10,14,-5,1,-1,-1,1,-8
3,13,19,4,4,0,1,11
5,19,43,4,2,1,-3,5
-2,-32,-33,-7,-6,-7,-9,-2
5,6,-67,-23,-5,-5,1,0
-27,-40,40,1,-4,-4,-3,-7
5,-34,52,35,6,1,3,-3
-8,-19,18,-21,-7,-8,-8,-7
-2,-2,-35,-18,-6,-5,-1,0
6,-13,-3,2,4,2,0,3
3,3,59,25,2,-1,-1,-1
0,12,18,9,7,7,4,-2
-13,-26,-91,-35,-7,-6,-6,-11
-14,13,22,-5,-7,-4,-9,-21
-2,-1,2,13,0,-1,-7,5
3,-10,-5,-6,-2,0,2,-1
6,7,5,2,1,3,-1,3
-6,-2,17,4,1,0,2,3
-4,-10,23,9,-6,-5,-7,-8
1,1,13,-6,-2,-4,-8,-2
15,5,13,5,1,6,12,16
-16,6,5,1,-1,-7,-23,-13
-4,-16,-128,-20,-4,-3,-1,-2
0,-6,17,8,2,-1,-5,-2
2,14,59,-13,-2,0,5,-1
8,-5,13,8,-6,-2,3,3
6,1,-5,-12,-2,-2,0,-2
-2,2,-15,-3,2,1,0,-3
2,-1,2,8,3,0,3,2
-4,-47,8,11,2,-4,-3,-10
6,42,44,6,-1,1,-1,5
7,3,-25,-7,0,1,-4,1
-15,-48,54,-24,-9,-7,-10,-4
3,54,-107,-6,-2,-1,-1,2
-1,-18,12,13,-3,-4,-6,2
4,6,28,0,1,0,-1,0
-1,3,13,0,1,-2,1,-3
-6,-15,-2,-14,-4,-1,-3,-1
-5,-3,-27,10,2,-3,-6,-6
-4,80,10,3,-2,-3,0,0
1,-21,37,-6,-1,1,-1,-15
3,9,27,16,3,0,2,1
5,7,64,4,-1,0,0,1
-11,-22,-52,-12,-7,-6,-8,7
-9,-14,-95,-14,-7,-2,-6,-5
-1,-2,-12,4,-5,-2,1,-2
2,-2,6,-8,0,-2,-2,2
-4,-18,21,-2,12,1,-8,-6
6,69,48,17,1,2,-1,-8
-2,2,0,1,-4,0,-1,-1
-2,30,22,-3,-1,1,-2,-6
2,-6,4,7,0,0,-1,-2
-12,-38,-34,-23,-13,-9,-8,-6
4,11,12,6,-1,-1,4,-3
-1,2,-17,-1,2,1,3,7
-1,-7,3,-1,1,-1,-5,-8
-8,-12,-53,-8,-2,0,2,-8
0,-18,13,9,-5,0,-7,4
7,22,96,4,2,1,1,3
-6,55,-44,-7,-10,-8,-6,-6
-23,-32,-128,-30,-11,-11,-18,-32
14,10,28,28,9,11,10,14
-6,-12,-4,-26,-8,-3,0,8
1,-9,51,3,3,1,0,-6
3,12,-9,9,1,-1,-3,-2
4,2,-15,14,1,-1,-1,1
-2,-31,14,-22,-5,-2,-1,-3
4,45,5,-1,1,0,1,0
-1,-11,-5,-1,0,0,4,6
-10,-15,11,12,-1,-2,-8,-12
-2,2,-4,2,0,0,2,2
-6,13,19,-10,-5,-3,5,14
-4,6,18,0,0,1,-5,-16
0,1,8,-2,-1,1,-1,3
0,-1,25,3,0,-1,-8,1
-4,-17,-14,-8,-6,-4,-3,1
-13,39,-35,2,5,-4,1,0
6,-14,48,6,2,2,1,4
-9,-16,-92,-19,-7,-3,-3,-4
-2,-1,36,5,1,-1,-1,-4
9,24,32,13,4,-1,1,4
-4,-10,-16,-19,-7,-3,-7,-1
12,12,44,14,-2,-1,3,20
1,9,33,-6,-5,-2,1,-3
2,7,16,-12,1,1,1,10
0,-9,-28,-5,-2,-3,-1,-7
-4,-3,1,7,-1,3,-1,4
-1,-6,45,14,1,-2,-1,1
1,-28,-58,-25,-9,-7,-6,-2
-10,-61,-90,-7,-4,-4,-3,-7
-11,40,-5,5,4,5,6,4
3,5,50,14,-1,1,3,-1
2,8,83,13,5,0,6,16
-3,-37,9,-13,-4,-2,-9,-6
-1,-11,-67,3,2,-3,-8,-32
-1,2,32,0,-2,0,-9,-2
-1,13,50,30,3,4,1,4
-2,-2,-48,-24,-1,1,2,2
-14,-36,-107,-34,-15,-10,-7,-7
2,-31,15,-4,0,-4,-1,0
11,58,36,12,3,1,3,7
0,-15,10,5,0,0,3,-2
-15,16,-34,-1,2,-4,-13,-14
5,9,-4,-3,-6,-1,-3,-11
-14,-19,4,-2,-7,-6,-5,-9
0,17,45,10,4,-1,2,4
10,-77,-35,6,5,5,11,-2
5,-13,11,2,1,-2,-8,14
-2,-16,41,-13,-7,-6,-5,-1
3,-2,2,5,-7,-1,-3,-1
-5,-1,0,-10,-5,1,-1,-5
-12,-8,-109,-25,0,-5,-6,-11
-2,5,52,22,0,-2,-1,-4
11,9,92,12,6,4,4,16
-7,12,-18,-3,2,0,-3,-14
-1,-13,12,-8,-6,-4,-4,-2
11,-3,-55,14,2,3,1,5
-1,-19,-80,-26,-3,-1,-1,-2
3,-1,11,4,-2,-1,3,-2
1,7,-11,-5,1,0,-2,-3
-15,-5,19,-1,-4,-4,2,-12
11,12,25,8,3,3,-4,14
-1,13,13,0,-4,-6,-4,-1
-5,2,4,2,2,0,-1,-13
5,-31,53,1,0,3,7,15
-2,37,1,10,5,-3,-7,-2
-3,0,-22,5,-4,-5,-5,-6
2,-11,6,-8,-3,-1,-1,-2
-7,-11,-42,-14,-2,-3,-1,-1
-16,-35,-35,-20,-12,-7,-15,-23
2,3,48,6,0,-1,4,-4
-5,19,-41,-1,7,-5,-3,3
-3,2,-50,13,1,1,-1,-4
-10,-13,12,-12,6,2,0,-5
2,-16,-11,-19,-16,-4,-6,2
1,15,-2,22,3,1,4,0
-7,5,-19,-11,4,-2,-5,-5
3,-8,17,-5,-1,1,1,-4
7,-6,-41,12,4,2,4,12
-4,-6,25,6,-1,3,-1,-1
-1,0,22,7,-6,0,-2,-2
4,9,-2,-8,-3,2,5,4
3,13,54,11,2,0,-4,2
-9,-38,-53,-1,-7,-4,-4,1
-4,-6,-37,-21,-4,-3,-2,-9
1,-8,-11,-15,-6,-2,-4,-1
8,20,24,5,4,2,3,1
-4,-2,11,10,1,-1,1,-1
4,-8,13,0,0,-1,2,-5
-12,-6,-128,-31,-15,-7,-15,-4
9,15,56,20,3,2,2,4
-4,7,7,-5,0,-5,2,1
-20,-43,22,11,0,1,1,-4
-2,-2,53,26,-5,-8,-5,-6
5,3,34,-15,-2,0,1,6
-2,-11,-24,-35,1,3,-2,-3
-10,-15,-49,-4,-6,0,5,-4
2,9,66,9,-2,-3,-5,3
6,7,22,3,0,-3,4,9
1,3,-27,-7,-3,-4,1,0
1,7,18,20,3,1,1,3
-4,-8,38,6,-2,0,0,-3
-2,-4,4,-6,-1,-6,-6,-7
-1,-19,-34,-7,2,-2,1,3
1,5,32,3,-1,-2,0,4
1,8,50,-4,-2,2,-1,0
-8,-14,-70,-11,-4,-4,-9,-1
2,-13,-49,-5,1,-1,0,2
-3,6,6,-19,-12,-1,-2,-5
-5,-17,-51,-6,2,3,2,-6
-6,12,43,12,1,-3,-8,-4
0,84,43,18,5,-2,-1,-1
17,-41,24,-1,-4,1,0,6
-6,-23,-54,-18,-10,-4,-4,-2
-9,-7,-2,-11,-5,-3,0,3
6,14,50,18,3,1,-7,-1
0,-5,-10,3,4,-2,-2,2
1,25,31,9,4,1,0,1
-8,-2,-11,-13,-4,-1,-2,-5
-11,-38,-73,-21,-1,-1,-1,-4
3,11,-6,-4,-5,-2,-1,-6
1,-1,5,3,-4,-4,-2,3
4,-3,44,12,3,-3,-1,2
1,1,-21,16,7,7,0,7
0,-10,42,6,1,-1,-3,-8
3,19,62,-6,-7,-4,0,-1
1,-4,-66,-11,-1,0,-1,-2
-10,-26,-65,-18,-11,-7,-2,-7
-5,-11,-14,2,-1,-1,-3,-1
5,11,25,3,-1,-5,-5,-1
3,2,1,2,2,-4,3,6
-2,17,93,15,1,-5,-5,-2
0,1,45,5,1,0,3,9
1,-19,-128,-26,-1,-3,-2,-12
-16,-20,3,-27,-4,-1,-6,-14
2,-12,44,11,-1,1,1,0
0,71,1,28,2,1,0,-5
3,-22,-47,-10,0,-7,-11,-1
-10,-54,-3,-6,-7,-6,-5,-3
2,-20,-14,-14,-6,0,-2,0
1,3,9,-8,-5,-2,-2,2
6,-1,19,11,-2,2,-1,6
-9,3,33,7,3,0,4,-5
1,6,50,18,7,-2,0,1
1,-2,-27,1,0,1,-2,2
0,3,-78,-34,-4,-3,-1,-4
-7,-8,-37,-3,-2,2,1,1
-5,-25,19,2,-3,-4,-4,-8
9,14,2,3,-6,-3,-2,-2
7,21,82,-3,1,2,6,6
5,-86,-38,-6,-1,-1,-2,-1
-8,-19,52,-1,-3,-1,0,-5
3,35,-21,20,6,4,4,-2
-3,-12,-25,-16,-18,-10,-5,-2
-1,-11,-21,0,3,-3,-1,0
-9,-6,36,-7,0,0,1,5
-2,-31,51,18,2,1,-4,-11
-1,36,97,19,4,0,-4,-3
-3,-24,-128,-32,-4,0,1,1
0,0,-8,-21,-9,-6,-9,0
-1,14,90,20,4,1,-1,5
-3,12,61,26,5,-1,-2,-14
2,-16,-128,-18,-7,-3,0,-1
-4,-15,-27,-4,-6,1,0,2
-5,5,17,-23,1,1,-5,-3
1,8,4,8,1,-1,1,2
-5,-10,35,-1,-9,-5,-2,-2
0,5,10,0,-3,-4,-2,-3
0,1,6,12,-3,-5,0,-3
0,-2,-14,7,2,1,0,-2
4,-8,37,-4,-2,-1,0,9
8,-4,-90,-13,-4,1,-4,14
-19,-16,-36,-10,-6,-5,-7,-20
-2,4,57,10,1,0,-3,-3
1,-5,-19,4,3,3,0,-3
-1,-4,-83,-1,1,-1,2,-7
2,-14,72,4,-2,-3,-4,-1
3,24,-22,6,1,-4,3,-9
-4,1,39,-11,-5,-4,-8,11
5,-27,-29,-10,2,-1,0,-1
-13,-17,-109,-30,-7,-3,-4,-12
-4,12,81,29,2,1,2,9
8,-2,41,1,1,-2,-11,-12
3,4,-18,-10,-5,-3,1,4
-9,-19,95,20,1,-6,-1,1
1,20,-47,2,6,2,7,-3
-2,-12,-55,-9,-2,-1,-2,5
-12,88,31,-3,-1,-1,-1,-15
10,-42,-22,2,-2,-9,-7,-7
-9,-54,-31,-10,-3,-2,-4,-7
3,21,-1,-9,3,3,-1,3
-11,-10,-25,1,-6,-3,-7,-6
-7,-5,-1,-1,2,-3,-5,-9
-4,5,5,2,2,1,1,-5
-5,-9,-2,0,0,1,-2,12
3,7,21,14,6,6,6,1
5,30,42,6,5,-1,-3,-6
11,-1,-28,-9,-1,-5,-3,4
-2,3,49,6,-8,-1,-3,-3
-5,-13,-6,-26,-10,-5,-4,-1
-3,-8,-18,-2,-8,-2,0,3
-2,-10,-4,-9,4,0,-5,-14
-5,-3,34,-12,0,-5,-12,-9
3,13,33,17,3,5,5,-9
-14,19,11,11,2,0,0,10
11,-1,-17,2,-6,1,-1,15
1,9,27,-2,-5,-2,6,-6
12,4,2,6,-2,2,5,23
-8,-7,19,-12,2,0,2,-8
-5,-25,-76,-24,-12,-8,-5,-2
0,12,-7,4,3,0,-1,-2
-1,37,4,10,2,2,0,4
-1,-8,-51,3,1,0,-4,-11
-9,-18,-17,-1,-2,-2,1,1
-10,7,83,-3,-3,-4,-5,-1
4,0,-29,2,1,1,0,3
-8,2,42,10,6,0,-4,-6
5,1,-33,-7,-7,-2,5,9
-10,-48,-32,-33,-13,-9,-13,-7
1,11,-49,3,8,2,5,9
-5,1,12,7,1,-3,-2,-6
7,-41,56,10,4,2,7,5
-4,17,-91,-2,-1,-4,-8,-9
-8,-36,44,-20,-15,-7,-8,-7
1,104,23,-4,-3,-1,0,-1
0,-30,-5,3,1,-1,2,-3
-1,-14,9,0,3,-1,-1,3
2,0,16,6,2,-4,-6,0
4,1,4,6,2,-1,-3,2
3,-5,20,13,7,4,2,6
-1,8,20,7,0,0,-3,-12
-8,-16,-58,-23,-11,-6,-4,-10
-9,-23,-47,-18,-5,-2,2,10
-1,-12,19,14,-2,-7,-12,-22
1,19,-25,-9,2,1,-4,9
-9,-24,22,-23,-7,-5,-2,-2
-4,1,53,19,5,1,2,-7
7,-15,-23,0,0,0,-2,-3
-9,8,-11,-8,0,-2,-7,-6
-6,6,23,3,-2,-2,-6,-1
2,-3,-17,9,-7,-5,-3,-4
7,10,54,7,6,2,3,9
-9,-10,-25,-11,-5,-2,-1,-10
3,-11,-57,-5,1,0,-1,3
1,21,26,12,6,1,-1,0
-10,-15,-15,-19,-10,-7,-7,-8
-13,3,5,-1,-6,-2,-3,0
12,31,29,-1,2,2,7,10
-20,-4,12,-6,-1,-6,-9,-22
8,-3,22,16,8,3,2,11
-2,0,0,-6,-9,0,2,-10
-6,-11,-9,1,0,-2,-6,2
-5,4,41,11,0,0,-7,1
3,2,-34,-2,5,2,4,3
-3,-19,23,7,-9,-7,-2,-8
-1,33,-59,-31,0,3,0,1
-22,-52,-51,-17,-3,0,-5,-9
2,32,76,12,2,0,-1,4
1,11,18,5,-1,-4,-2,-2
-10,66,21,16,2,-1,-1,-7
16,-29,37,2,0,0,0,4
-5,-35,-59,-32,-12,-5,-9,-3
-7,-10,-7,-1,-1,-4,-2,-4
2,47,-14,2,1,-2,1,2
-1,1,10,9,3,1,-3,7
4,7,55,4,-4,-3,3,1
0,0,-40,-8,-4,-4,-1,4
-2,8,-6,7,0,-1,-3,-7
-11,-25,-33,-17,-7,-6,-9,-10
-9,5,41,-1,-2,-1,-1,-5
2,1,-22,-3,-1,1,-2,2
2,5,-55,-10,2,0,4,-6
1,1,19,3,0,-2,0,0
-16,-18,-62,-22,-11,-7,-9,-14
5,-5,-1,-4,0,0,-5,-4
6,8,34,7,-1,4,7,6
-7,6,29,3,2,0,-4,-9
3,13,38,2,1,-4,3,-1
0,-9,12,1,-6,-4,1,-3
-4,-6,3,3,-1,1,-1,-1
-2,7,33,4,1,-2,-8,-4
-5,-13,-96,-16,0,-4,2,-5
-3,-22,-73,-25,-8,-4,2,-1
10,15,29,6,-2,3,2,5
2,5,52,13,0,1,-4,14
-6,6,23,5,-1,-3,-7,-8
4,3,-9,3,5,2,5,11
4,4,25,2,3,1,0,-6
1,9,73,2,-3,-1,-4,-1
-1,21,-20,15,3,2,6,6
-10,-41,-128,-40,-13,-10,-7,-7
-1,-10,-54,-42,-18,-8,-9,6
-8,-21,-1,-4,5,0,1,-8
0,10,38,24,7,6,1,4
4,-21,12,12,1,1,1,-2
8,37,3,2,-4,-1,0,-5
3,10,69,6,5,4,0,-1
-1,-12,-26,-4,3,2,2,-3
3,3,-40,-6,0,0,3,2
-9,-17,-47,0,-1,-1,-1,-1
-3,-17,-20,1,-3,-2,-1,-2
1,2,11,-4,-3,-5,-1,-4
0,-14,45,4,5,-1,-1,-4
3,-3,-16,-7,-5,-2,-2,1
-2,20,-14,8,3,4,4,-2
2,11,-7,-2,-2,-2,-8,3
-7,-18,-3,-10,-6,-5,-9,-11
-13,-32,-22,-8,-6,-4,-8,-5
0,-4,-15,9,-3,1,1,-4
0,6,24,1,-3,-6,-1,0
4,-17,52,16,6,2,3,2
9,51,-13,7,1,3,15,12
5,-5,-109,-18,0,0,-3,22
-2,-3,-28,-22,-9,-2,-2,7
-8,8,56,-5,-5,-1,1,-10
-3,-25,14,2,-2,-3,-7,2
1,-39,13,9,6,-2,3,3
1,25,18,14,5,1,0,-3
7,10,43,11,-2,1,3,3
-9,-21,-70,-17,-7,-7,-4,-7
1,7,1,-5,-2,-2,0,1
-3,-10,-39,-10,-3,-4,0,-2
-5,-17,2,-6,-3,0,-3,-5
3,9,23,8,3,0,3,6
6,4,52,15,4,3,-1,3
-2,-12,-8,-13,-5,-4,-2,-1
-4,-34,-107,-12,-1,2,-1,-4
0,15,24,5,0,1,-1,1
4,9,51,15,0,-1,4,2
-14,-21,9,-10,-6,-5,-9,-9
1,-2,-117,-9,0,1,-2,-2
1,5,5,3,-1,-2,-3,3
2,12,96,11,4,0,-4,-8
3,-77,-93,-5,-1,-2,0,-2
-4,50,-69,-35,-16,-14,-10,-7
-15,-11,23,-10,-7,-8,-16,-14
15,17,61,18,5,9,15,19
-1,-13,-36,-2,-3,-6,-11,0
-4,-23,-21,2,-7,-3,-1,-2
3,6,80,20,9,5,-2,0
-1,11,-43,-13,5,0,0,-3
-6,-27,-58,-14,-12,-4,-4,-4
0,-8,-48,-19,-10,-1,-2,-1
8,14,45,12,1,5,7,11
-23,-2,86,5,-3,-10,-19,-26
-5,-34,-55,-11,-6,-6,-1,4
8,21,38,8,1,-1,-1,5
4,10,-4,3,-3,3,5,3
4,5,-69,-1,-3,0,4,5
-12,-30,-91,-19,-9,-9,-4,-11
-10,-11,29,-6,0,0,5,1
6,9,29,11,5,5,4,-8
14,8,22,6,5,3,4,22
-8,-3,23,6,-4,-3,-3,-15
-2,-5,-12,1,-2,-2,1,-1
-12,2,-115,-9,-7,-10,-12,-18
6,-17,-64,-19,-8,1,0,1
-2,-24,61,2,-1,-3,-5,-2
-4,10,31,7,2,-4,1,1
2,17,6,-4,-8,-4,-2,-2
-8,-5,36,3,1,-3,-4,-17
1,-9,-33,-4,3,1,1,4
-10,-32,-115,-19,-7,0,-1,0
1,3,22,4,-1,-7,-6,-22
9,11,48,15,8,4,6,10
2,0,-6,5,-2,-1,-4,19
-1,-9,-18,-8,-7,-2,1,-14
5,14,35,2,-4,0,-2,-8
-5,9,68,22,8,3,-4,-4
-5,0,-75,-13,0,1,-3,-4
-5,-8,22,-22,-2,0,0,-3
-15,-10,-106,-21,-7,-4,-5,-9
4,8,16,10,1,1,4,8
0,7,87,14,0,0,1,1
4,7,80,13,1,0,0,1
-13,-31,-128,-17,-6,-5,-9,-15
2,1,21,-21,-9,-2,-3,-1
-3,-3,75,20,6,1,2,-4
4,4,-46,-12,-5,-3,0,-3
2,7,-29,-3,0,2,-6,3
8,8,62,12,6,8,13,16
2,4,24,7,-4,-5,-5,9
-2,-5,-26,-3,-2,0,1,-3
-6,-20,-36,-8,-3,-4,-16,-4
3,12,2,-8,-5,-3,0,-1
-2,12,35,5,3,-5,-3,-8
3,-1,-10,6,1,2,6,4
-5,-2,32,7,7,6,4,-3
5,12,-20,7,3,3,3,2
-7,-19,-31,-9,-6,-3,-3,-6
-2,-38,-25,-16,-6,-7,-5,-5
-1,27,36,8,1,3,3,-1
2,16,31,4,-5,-6,2,6
-3,-5,-15,14,-1,-4,-8,2
-3,-16,-55,-27,-10,-5,-5,-6
3,2,13,-12,5,1,6,4
