Channel_1,Channel_2,Channel_3,Channel_4,Channel_5,Channel_6,Channel_7,Channel_8
-4,-11,-39,-18,-1,1,-2,-1
2,12,5,9,1,0,-14,-20
29,27,24,19,-46,-14,-19,21
-33,-28,-9,44,63,13,19,15
39,-36,-50,22,8,0,-17,-3
-41,-2,40,-14,-25,-17,-16,-49
7,3,-24,-76,-32,-3,-3,6
25,30,17,-21,13,5,10,11
-5,14,16,56,10,-3,3,27
29,-20,54,-72,-48,-8,6,16
3,43,-87,84,94,13,12,-2
49,-56,91,-1,-4,-8,-20,-15
-18,-26,0,17,0,-4,-31,-37
-54,-12,-78,-30,-25,-6,11,10
36,-9,-21,-9,39,-3,-5,11
-65,17,9,-21,-19,-10,-28,-60
-19,-38,-24,-58,-31,-9,-9,17
-4,17,25,63,9,5,-11,-7
27,37,38,61,10,15,37,28
-12,20,-21,-70,-25,-8,10,12
24,-19,21,94,-16,-10,-19,-9
-56,-20,-10,-69,60,16,-12,-1
23,18,39,-35,-2,-7,-9,9
-29,-45,-55,-46,-19,-11,-6,-16
-2,18,-9,107,24,1,8,42
8,-20,-12,-29,3,4,14,41
17,9,-23,1,17,1,-20,-84
-2,-10,-2,-30,-23,-14,-27,-48
-10,-19,20,-18,-19,-9,-2,20
-34,24,5,-76,-46,-13,20,59
-25,11,11,11,0,-1,-25,-3
-15,-25,-7,-1,2,-4,-6,-61
15,-2,17,27,6,-5,11,0
39,-20,-91,-1,3,6,17,55
-30,43,54,94,-20,-10,-14,-16
10,-8,-3,-66,8,-3,-17,-73
38,-35,12,-69,-38,-17,-4,42
47,-13,1,63,28,10,6,7
-42,13,-63,25,-1,-1,7,12
-4,-19,48,-16,-28,-13,-7,8
6,17,24,-31,-28,-8,2,2
-5,-1,-4,-17,-27,-3,7,18
8,19,-14,118,47,5,17,35
51,-9,21,-1,3,3,1,9
18,32,-10,-13,-20,-9,-41,-66
-58,-13,4,-32,-12,-2,60,10
-6,20,-5,-53,-43,-4,8,37
29,22,-35,120,56,27,51,40
-14,23,22,2,7,1,-4,6
-34,18,1,-128,-34,-8,0,-14
-22,6,17,127,-14,-2,-11,-2
63,-19,-8,-128,50,12,18,38
10,4,48,127,5,-5,-1,1
27,3,-63,10,26,5,-21,-30
-33,44,-49,-60,-30,-18,-12,9
6,-26,34,63,-30,-7,-1,-41
3,-1,-3,-57,5,3,10,14
29,35,24,-128,-35,-1,14,42
41,1,18,127,42,4,5,19
18,-25,-33,-58,52,-2,-29,-50
9,-44,19,-23,-15,-2,-5,11
-12,10,-22,-12,-17,3,-5,-1
12,15,-8,-10,-12,-1,2,-8
3,20,6,1,-5,3,78,70
8,-18,19,-6,-5,-9,-14,-1
-27,-29,-12,-3,-7,-14,-34,-71
-10,-2,63,-35,-5,0,-7,-14
-2,29,6,69,9,-3,0,12
45,-12,-34,-7,-1,2,14,34
31,26,-7,2,-9,-6,-4,26
-30,-26,22,-39,-2,7,-8,-44
25,-5,20,53,5,-7,-3,2
-14,63,5,56,22,12,11,27
63,-31,-24,4,52,14,-4,-19
-31,-5,17,-32,-45,-18,-6,5
-27,11,98,33,-67,-4,14,53
38,-57,-128,-122,114,30,38,-12
57,-7,50,-88,-51,-19,-31,-60
-35,26,-44,-34,-32,-10,-19,9
-13,1,64,9,-46,-8,7,17
-3,-18,-44,35,28,6,9,17
-55,-47,5,26,1,2,-6,1
-20,-7,-25,7,4,-7,35,14
-14,-7,-28,-18,-19,-6,-8,-4
10,29,10,18,3,2,1,-2
-38,-42,6,-1,-4,-1,1,33
22,30,-12,8,0,10,23,31
7,-12,-50,-75,-28,-15,-18,-29
-13,-50,2,74,13,-10,-41,-81
11,42,6,-18,11,10,3,8
-41,22,60,92,-45,-22,-5,-12
88,-36,-46,-100,62,13,10,31
-74,22,-35,24,6,2,16,22
-3,14,41,-32,-20,-3,-8,8
8,-59,-4,-20,-18,-11,9,-12
46,6,-3,-45,-29,-11,-3,14
-108,-18,-35,52,29,1,-29,-57
-11,-33,50,-27,-25,1,42,30
16,16,-24,23,8,7,8,22
12,3,3,-17,11,-3,-11,-24
12,4,-12,53,20,11,-6,13
-6,33,20,-71,-7,-2,-5,26
-14,-53,-20,-87,-27,-12,-9,-62
-1,-16,48,-49,-76,-9,-2,2
-6,-15,-21,127,98,21,14,28
-3,19,12,-61,-2,-3,3,17
-9,6,-8,-44,-22,-4,-19,-17
-27,15,55,-50,-50,-8,-1,-11
49,18,26,120,57,9,3,14
127,-29,-61,-97,-8,-13,-8,-3
-128,-81,-102,-50,-25,-6,-2,-23
-28,-4,34,31,-7,-3,-25,-11
41,38,13,-28,25,8,15,17
35,70,18,-44,-14,-19,-6,1
-10,-71,10,104,-12,-15,-19,-17
2,10,17,4,27,9,2,5
-19,-1,-43,-7,-5,7,9,14
-4,17,-21,-4,-11,6,13,49
19,6,17,-2,-12,-11,-20,-37
-24,-19,-15,-1,-6,-20,-25,-49
39,-34,15,-16,2,-7,-20,-35
-106,3,-19,-5,-4,6,18,18
16,7,1,-58,-6,1,7,26
-76,-29,22,61,-6,-9,-17,-18
40,-78,-107,106,22,5,-3,17
-31,24,78,-85,19,5,-3,-15
-7,-32,-20,2,-1,-6,17,3
-1,36,1,-128,-79,-30,-7,11
1,33,96,127,-25,8,7,11
28,17,-37,-128,86,56,32,32
-2,-53,-106,-103,-41,-18,-16,4
5,9,32,-35,-40,-23,-4,22
-16,-17,-37,-4,-21,-4,-11,-128
-91,25,37,12,-8,-6,-20,-9
42,-7,22,5,-16,-20,-26,-8
17,1,8,36,0,-9,1,19
-20,-17,7,-4,3,8,22,20
19,36,22,25,-4,7,12,26
31,41,8,55,47,16,-4,-15
8,-73,14,-20,-7,-10,-36,-17
-41,-20,-97,-17,-19,-3,27,14
4,20,57,-19,10,-5,-8,-3
8,-7,-7,-15,-6,-7,-5,8
-39,28,25,-36,-29,-9,-6,-18
19,2,4,58,-7,9,9,0
67,-6,-68,-34,39,13,-1,37
-37,11,3,-42,-21,-13,-33,-108
-62,-47,4,25,-47,-18,-19,-51
27,-16,2,-91,12,4,11,24
7,-13,20,2,-4,-2,1,10
23,48,5,20,1,6,13,20
0,-28,4,-19,-6,2,20,54
-10,-22,11,-22,-24,-10,-7,0
-37,-27,21,127,6,-6,-35,-76
-12,16,-70,30,82,18,2,3
-8,-8,24,-34,-17,-5,4,19
41,5,-23,-48,-23,-3,1,4
-13,36,-3,-69,-61,-8,-4,29
-29,-27,-22,127,64,-11,7,0
94,22,34,-29,-4,-8,10,-38
-47,-24,-16,-9,-10,-2,-18,3
-26,28,58,-65,-60,-15,-8,7
36,48,-23,112,67,20,20,47
-69,56,-41,25,15,4,1,-6
8,-105,8,-67,-19,-10,-28,-86
-44,-13,-36,0,-7,1,-5,19
2,12,49,-65,-26,-8,4,8
0,44,-11,79,21,11,18,27
-7,21,-13,1,3,-9,-9,-7
50,-27,10,-6,-8,-1,-14,-20
-71,28,-5,-91,-19,-4,-22,-14
38,24,44,127,-35,9,20,28
30,26,11,53,117,25,66,75
-82,-10,-122,-45,-24,-18,-40,-114
-27,-85,29,-24,-25,-8,-19,-54
-70,-27,7,-92,-73,-16,-6,14
41,47,5,93,22,13,30,65
93,7,-65,63,127,11,-16,-12
16,10,22,-25,-14,-1,-17,-42
-61,-14,-25,-104,-49,-15,-12,3
-6,-7,40,127,-12,-7,4,6
-5,8,46,24,-30,2,15,5
16,7,-128,-91,93,20,5,11
10,7,30,-23,-24,-9,-13,-9
7,33,44,-21,-26,2,2,1
-18,-1,39,0,-11,-14,-5,-2
-8,-9,-43,1,-9,-4,6,8
-7,-40,-13,2,-1,3,-1,-15
19,16,9,1,2,-5,-2,3
-26,37,22,-55,-21,16,7,30
-6,-10,-26,93,51,5,49,28
29,-37,-27,-18,-5,-18,-43,-99
67,-8,48,-7,-8,-6,-22,-30
-25,-58,-30,-20,-8,0,6,24
8,27,5,-64,-52,-12,-3,29
-120,14,29,127,39,0,6,-11
66,-22,-67,-81,53,17,-1,5
34,-20,-52,-44,-18,3,5,-13
-16,43,17,-10,-14,-2,3,14
-12,-6,56,-26,-17,-3,6,6
48,72,85,-128,-100,-4,37,91
-7,28,-41,127,127,19,7,10
62,-128,-92,-128,-18,-16,-37,-128
-97,-9,-128,-59,-41,-19,-25,-25
-3,16,79,-19,-28,-8,0,18
5,13,37,75,-65,-9,6,13
16,33,-16,72,93,33,26,23
17,28,42,32,25,11,12,21
12,7,-51,-10,-10,-3,3,10
-6,-10,-14,-10,-15,-9,-22,-2
6,30,44,60,-32,-3,16,18
7,47,-36,39,40,-1,-5,-5
5,-33,58,-45,5,0,-4,-23
-64,-22,-94,6,-14,2,5,38
27,-17,0,-2,3,-3,-3,23
94,-47,-82,-9,3,-10,-19,-54
-103,65,34,20,-10,-3,-21,-17
-45,28,39,6,-5,1,7,21
1,-81,16,48,35,12,4,-19
9,43,-7,-111,-27,-4,15,20
2,6,-13,127,48,19,36,27
8,52,7,-17,-23,-23,-13,-5
4,-25,4,-10,-1,-1,-9,-24
79,-8,12,-95,-48,-12,-14,6
-62,2,39,127,14,3,0,-10
-3,-12,-36,-74,0,11,10,17
0,-28,23,-21,3,-3,11,31
39,-29,-68,53,27,9,8,-22
-48,4,-10,-23,-22,-14,-27,-28
-83,-8,32,-19,-15,-8,-18,6
-28,10,44,-72,-71,-17,2,-9
-20,16,-38,126,19,0,0,-47
14,5,-19,88,109,-4,-10,22
67,-10,-42,1,-26,1,5,9
-41,-89,-25,-125,-14,-1,3,6
-12,9,31,-16,-15,-3,-1,-2
-13,10,-12,-16,-13,-7,-16,-5
12,23,19,1,-7,-5,-3,25
-20,5,17,10,7,5,21,-1
-28,-4,8,15,3,7,-20,-18
47,74,22,12,13,20,38,50
48,-44,-10,-8,-5,-4,11,-3
-86,-69,-67,18,0,-13,-39,-63
-34,0,51,-3,-1,-12,-22,-1
-4,11,-41,-11,-5,1,-1,0
16,20,-8,-1,1,9,11,19
1,4,12,-29,-7,3,12,27
-15,21,30,6,-52,-12,-5,-3
4,5,-26,127,118,19,3,23
127,30,-8,-107,-7,3,29,21
-128,-100,11,-27,-58,-17,-15,-63
45,49,22,105,50,19,-4,15
3,16,8,81,-22,-15,-12,-29
31,12,28,10,9,-10,-1,2
-74,-5,-54,-32,2,1,-13,-42
22,-10,38,-43,-23,-6,-5,8
-48,-6,7,-36,-28,-11,0,5
-32,-4,5,109,1,2,3,21
85,12,-12,-36,25,15,13,21
-2,-5,17,-19,-13,-1,-3,-26
-39,-7,90,17,-41,-12,9,34
33,17,-82,66,58,15,13,14
23,-27,-44,-14,-5,1,-24,-11
-14,-35,18,-37,-17,-15,-15,-55
8,9,28,0,-10,-10,-11,7
-52,6,-11,-32,-30,-3,-6,16
9,21,-17,-86,34,9,35,-1
53,-37,16,90,8,-10,-22,-18
-9,-9,14,23,-1,7,-14,-6
23,12,5,-39,-6,6,12,40
-34,21,31,-15,-2,6,-1,-3
26,54,-45,-13,6,2,-2,-25
46,-71,91,-6,-12,-4,7,41
-44,-24,-118,0,-2,-11,-15,-58
13,20,26,25,-1,-11,-21,10
-91,8,-30,-25,-1,1,-2,1
8,7,24,25,0,0,9,-2
5,-7,1,-5,-1,3,4,8
3,1,2,-54,-11,-5,0,2
-8,30,23,-128,-81,-19,5,34
-16,-3,32,127,73,18,7,2
40,-7,-77,-84,15,25,43,31
-46,-43,-40,-83,-24,-17,-34,-14
-43,-53,22,-49,-49,-27,-44,-122
-8,8,54,-7,-18,-17,-15,-21
4,0,-127,4,-7,-6,-5,22
-25,44,9,-22,-9,-4,6,23
7,7,-4,-93,-54,-10,2,16
1,12,-22,127,45,5,12,6
-47,26,47,-128,38,21,22,56
126,28,-33,-20,7,3,10,24
37,12,-27,-23,-30,-17,9,11
-79,-101,-73,-40,-36,-17,-26,-67
-36,19,47,4,-14,-7,-9,-14
-9,-11,73,27,-3,-1,-4,-4
5,24,-97,14,5,4,7,1
6,29,9,33,8,1,1,12
42,6,7,8,9,9,33,65
4,18,37,22,2,4,51,35
58,6,-53,-8,-12,-31,-48,-69
-80,-75,-41,-2,-3,-6,-29,-91
-31,4,22,5,-5,3,-1,7
-12,6,29,33,-56,-7,5,21
49,12,-47,52,82,32,24,32
25,14,-19,5,34,12,-5,2
-31,-26,21,-30,-19,-26,-28,-31
5,-10,11,-95,-27,-12,-5,14
-13,-10,3,76,-16,-9,5,15
18,65,65,62,0,8,20,20
31,16,-76,-65,18,4,4,11
8,-105,-32,-76,-41,-12,-20,-42
-27,41,58,29,-15,-5,-16,-7
-7,3,-48,52,44,19,12,31
38,-6,-21,-24,-25,-17,-5,28
-42,-27,29,-15,-15,-22,-12,-31
24,29,-7,-4,-10,-2,-4,-26
-11,-30,9,-25,-28,-1,31,16
-10,-18,-2,104,53,14,17,3
-11,6,-16,-23,-1,5,20,18
25,3,0,-22,-27,-20,-25,2
24,31,20,19,9,-15,-19,4
23,6,98,8,1,9,13,22
24,13,-128,-9,-9,1,12,-16
12,-32,-11,-90,-8,-2,-2,0
-67,-59,22,120,-27,-9,-23,-61
19,26,6,-50,39,3,-10,19
-62,21,-17,-4,28,0,34,26
13,-40,11,-32,-10,2,0,6
3,20,7,-16,-20,-8,-21,-10
15,-8,13,-22,-60,-13,2,-30
7,4,-13,119,43,-6,-7,-38
-44,-10,14,-58,-8,0,-27,-24
-10,-2,16,104,6,-3,1,26
127,9,26,-84,17,7,7,34
-50,-36,-104,-116,-22,-5,-9,-22
-23,2,-13,1,-46,-8,-6,-6
-21,-8,9,99,44,12,7,-2
15,39,10,-10,45,21,15,27
23,26,5,-31,-19,-7,4,8
22,-6,-1,-20,-29,-9,-1,5
1,-22,56,-18,-21,-18,-20,-46
-8,-49,-1,51,-4,-3,-9,-17
-96,0,-12,-41,34,5,6,17
4,63,59,-6,-6,-1,7,39
36,-9,37,8,-9,-10,-28,-40
-29,25,-102,2,-5,1,-11,-62
15,-2,69,-7,0,14,49,80
49,-36,-20,47,-27,-2,4,6
-9,8,-27,-11,17,-10,-38,-77
-1,17,0,-10,7,-5,-5,1
-9,6,57,-19,-21,-10,-22,17
-9,-19,13,-11,-14,-6,13,-12
46,21,-4,127,29,10,18,22
-20,3,-4,-128,33,14,3,22
-65,1,-4,-20,-18,-5,-8,0
-100,-5,20,-128,-106,-19,-11,-55
25,46,-8,127,127,45,25,34
23,35,61,-117,-12,-8,-9,-29
30,-128,-128,-44,-31,-21,-20,-14
2,15,23,-80,-45,-19,-28,2
-36,-33,-35,123,16,6,19,11
-13,24,-15,-82,15,11,7,2
8,32,25,-27,-16,-8,-13,-2
48,3,5,35,-9,-4,-6,-18
-18,7,-19,8,-4,2,-13,-16
-12,23,-8,11,2,12,17,30
25,28,8,13,-30,11,44,39
11,-24,-50,34,71,0,2,-10
-20,-21,85,-12,-21,-27,-57,-50
-39,-69,-105,24,-3,0,-17,-74
-9,-10,-74,-109,-52,-3,0,6
26,64,44,127,56,21,22,34
-6,37,-14,-76,35,-2,-10,6
-30,-126,14,-41,-14,-4,0,-13
24,6,21,-12,-15,-10,1,12
7,3,9,-77,-66,-20,2,33
-17,-5,-18,127,49,17,20,21
7,22,-14,-32,14,1,-28,-62
24,3,-44,-21,-11,-7,-22,-34
-20,-28,26,24,-20,-9,7,12
-13,16,82,-1,11,7,9,9
-16,-15,-87,-15,-22,-9,-15,2
38,16,6,8,3,-1,31,29
2,20,13,40,-40,-9,6,25
3,-12,-1,76,127,22,3,-17
-85,5,-12,-34,-21,-4,-16,-23
20,-89,-73,-15,-18,-13,-14,19
-73,37,41,-91,-34,2,27,19
24,32,-16,97,16,0,9,12
117,-28,1,10,-13,-22,-52,-107
-44,2,-2,-40,-5,-2,-13,-4
-5,16,9,24,6,4,-9,12
-5,15,42,3,8,7,26,26
8,23,11,-11,-5,3,12,27
6,7,-1,30,12,10,19,42
3,-23,-19,-44,-44,-10,0,3
20,19,55,17,-25,-17,-19,-52
13,50,-59,29,101,19,-3,16
-128,-128,-4,-42,-25,-10,-13,-2
13,43,19,-13,-11,-2,6,21
40,1,12,2,-20,-6,-13,-34
3,18,19,-21,-1,-3,29,-14
-16,54,13,-75,-2,1,3,14
-26,16,-4,97,-16,-7,5,27
88,-54,-39,46,36,5,2,32
12,18,-6,-40,-10,-10,-18,-23
-62,-37,21,-42,-19,-5,-16,-40
-20,19,27,44,-14,-6,-10,-5
2,8,-11,69,11,18,53,29
46,58,-77,-101,16,-5,1,28
20,-10,28,73,53,6,-15,-22
-128,-128,6,-32,-27,-14,-25,-70
18,28,24,-10,-17,-8,-1,10
22,35,13,1,-9,2,4,9
18,13,-3,-22,-6,2,9,21
5,25,34,43,-11,3,-6,1
-1,-20,-47,6,27,2,7,23
13,14,3,-20,-7,1,14,21
-3,2,22,4,10,5,-12,-48
-29,-58,-50,2,-14,-10,-10,-52
50,13,23,-19,9,4,34,55
12,5,46,7,-5,-5,-7,-5
-15,-10,-20,-1,-6,0,-11,-11
-8,-15,-23,-18,-4,3,8,5
-8,18,15,-69,-40,-7,12,31
16,27,29,109,30,15,14,25
1,-24,65,-40,49,15,-20,-55
-86,1,-128,39,28,-5,-21,-48
27,34,54,-29,-19,-6,7,47
35,-105,-58,-44,-38,-7,11,31
-27,-37,-76,-1,3,-11,-17,-43
-29,25,63,-61,-38,-22,-20,-53
28,22,28,85,-44,-17,3,31
51,33,-8,19,73,22,19,28
-54,20,-16,-115,-7,4,-22,-30
-37,18,3,-27,-24,2,7,12
5,-13,16,0,10,12,17,19
15,-3,3,-1,-10,-14,-11,-9
-1,8,53,-4,-10,-3,-14,-14
20,-6,-128,-10,-14,-5,-1,5
-16,-9,-21,52,5,2,31,9
25,17,-9,-41,-3,-3,-10,10
-99,-80,41,0,-6,0,-21,-61
29,-37,5,-10,-11,-7,9,12
-52,7,-2,-11,-9,1,2,9
6,31,3,-2,0,-4,-15,1
18,-6,-24,9,8,-6,-6,-10
3,2,3,-51,-12,-1,13,-8
-42,26,66,95,-54,-5,9,14
0,8,-39,-58,85,15,-7,-14
-5,-11,-103,-55,-21,-25,-40,-84
3,-9,66,-11,-14,-6,-1,18
-27,5,-59,-4,-11,2,7,13
-21,11,4,-64,-32,1,17,15
9,55,46,127,-53,4,13,44
48,-27,-68,-107,108,30,30,17
44,-84,-15,-92,-35,-14,-25,-34
-93,-96,9,-40,-31,-17,-28,-20
-5,40,-40,-19,-18,-4,1,5
0,29,35,-26,-8,0,1,8
6,15,20,92,-4,-5,2,2
10,7,0,-128,-51,-13,-4,1
-23,11,-9,127,100,15,4,-9
16,-3,23,-107,29,11,-1,9
42,-34,-105,-56,-27,-22,-7,14
-13,41,1,-25,-20,-5,21,13
-34,-22,9,-1,-9,0,-16,-54
-11,9,9,14,-7,-4,-6,18
40,18,12,-29,-13,-4,9,23
19,20,22,90,4,0,14,57
15,28,-47,-8,7,-6,-28,-100
-93,-20,47,-7,-14,-23,-41,-90
-98,-128,-91,-5,-4,-8,-22,-19
11,47,34,10,-2,7,14,28
27,26,7,8,0,3,9,29
-9,-7,-8,6,5,7,-1,11
7,13,11,4,2,4,29,27
-1,5,4,-27,-18,-12,-2,5
-16,8,22,108,-87,-23,-16,-23
13,2,-37,11,127,36,14,24
96,17,64,-51,-3,8,10,42
-36,2,-50,-52,-27,-9,-13,-37
-37,-34,-20,-57,-56,-26,-30,-53
-21,-13,10,82,26,-4,-9,-3
11,22,69,4,5,6,6,14
2,38,-58,30,-3,0,10,27
-15,13,-3,-11,-40,-12,10,26
69,-45,23,59,45,11,1,-41
-79,-46,-2,-3,3,0,-6,-12
6,17,34,-26,-2,-2,-1,3
20,19,13,-2,-1,8,-7,18
-4,58,39,47,-12,-7,1,-2
24,8,-9,-33,-16,-1,3,14
77,-24,3,-1,42,0,5,24
-89,-27,4,-2,-3,-4,-47,-70
-28,-4,-21,-7,-8,-6,-2,0
10,13,-3,0,-2,9,21,26
21,30,26,-35,-10,1,7,13
-6,5,-61,58,-4,-14,-3,29
70,-25,23,-37,-9,-8,-6,1
17,60,26,81,21,9,-16,-74
-28,-60,-41,8,17,3,-24,-29
26,64,25,-25,4,-1,-10,17
-7,-15,26,-40,-13,0,4,12
0,-19,-26,7,-2,-5,22,19
2,26,18,-24,-4,0,1,1
-11,18,57,-31,-105,-23,-2,8
11,-4,46,127,127,34,7,-3
37,1,-61,-52,22,5,-7,-16
-29,1,10,-64,-33,-14,-14,-8
-14,-16,8,-35,-32,-10,-6,-7
-13,8,36,-1,-14,-4,1,13
6,-39,-41,31,2,11,21,8
32,-9,6,-8,-21,-14,-14,2
-48,21,41,38,1,-6,-24,-29
-33,-11,-79,-22,31,9,-2,-20
-3,39,1,0,-3,5,2,27
80,71,9,-14,-11,5,57,70
-63,-128,-63,-14,-21,-25,-20,-11
-17,-4,-27,10,1,-12,-48,-85
37,31,18,17,-8,-5,-14,-24
-2,27,-20,1,6,7,8,19
-8,5,20,-31,-8,-8,-8,9
-7,-1,-7,31,-1,4,-7,22
-15,21,-5,-2,2,5,13,6
10,-33,-42,6,-1,-6,-5,-27
76,-15,19,-4,-24,-13,-14,4
-39,-6,29,-20,-36,-14,-11,-23
-43,-8,-23,-11,18,4,-2,10
19,8,30,23,35,11,17,29
-2,39,-35,-20,20,15,-9,-2
30,-95,-54,-7,-15,-4,-14,-75
9,-40,13,-72,-23,-16,-25,1
-12,33,22,19,1,-5,4,11
-3,27,40,-1,0,1,5,10
-7,9,7,37,-9,3,3,9
-22,-20,19,-32,-46,-8,-4,-3
11,13,-9,46,56,11,6,7
26,-4,-35,54,73,17,17,46
-8,-9,70,-44,-13,6,20,13
-72,-15,-110,-4,-33,-21,-39,-102
37,-12,-8,-29,-22,-18,-33,-44
27,18,37,2,-10,-9,-24,-1
-32,19,23,6,-3,0,11,15
8,-9,7,2,2,3,11,17
0,7,-3,-5,-2,6,3,11
-4,7,20,-25,-20,-4,-1,27
4,26,7,74,43,17,3,-3
55,27,9,-3,-4,-6,29,-17
20,-3,-55,-42,-14,-15,-30,-1
-111,-79,-6,-29,-17,-1,-2,2
-13,-50,2,12,7,0,7,-2
7,38,18,5,-3,2,-11,-11
13,21,5,-15,19,4,-2,17
6,31,23,-128,-63,-14,-1,-11
7,7,1,127,4,0,4,15
11,-3,44,48,86,28,25,27
42,3,-106,-52,2,-1,-29,-18
-42,-12,-33,-48,-35,-18,-14,-21
-18,-3,38,28,-29,-13,-3,-20
-10,-23,32,-51,-3,4,3,16
0,14,-24,-18,-11,1,-6,6
-16,-78,15,66,-6,-8,-1,6
-4,-22,-2,-128,-38,-17,-13,-16
2,37,2,59,3,2,-5,-15
-8,36,64,127,47,16,25,52
8,39,4,26,56,18,15,27
-11,-23,-78,-46,-23,-7,-18,-41
52,-69,75,-31,-32,-25,-58,-100
-28,-13,-128,-20,-13,-6,9,-44
-25,15,70,6,-13,-7,1,28
71,14,-5,-6,-6,-3,9,33
-128,-10,-1,-2,-1,-1,-8,-33
10,2,14,8,8,8,0,7
14,1,-1,10,5,3,3,9
4,4,-3,-16,-8,5,2,25
7,24,33,-36,2,17,69,88
9,-24,-74,41,8,-24,-30,-58
121,28,-16,-10,1,-11,-47,-75
-105,-18,73,-13,-11,-8,-16,2
-9,-60,-128,-39,-19,0,17,22
-1,6,55,-24,-21,-6,6,31
-23,5,7,-17,0,-7,-17,1
1,22,19,78,11,8,0,-53
14,4,0,-13,13,8,19,23
20,21,18,-25,15,4,2,17
17,26,6,-14,-13,-5,-3,1
-31,-28,-2,17,-6,-1,-1,-5
-4,-7,-7,-13,-14,-8,-5,-1
4,27,77,-15,-84,-21,-6,-14
13,14,9,127,93,32,32,49
29,-35,-128,-123,58,23,30,53
32,67,-24,-50,-35,-43,-84,-122
-128,-128,100,-35,-33,-19,-35,-70
-41,-33,-1,15,-18,-8,7,14
25,11,4,26,7,0,5,8
30,33,13,5,-10,2,4,12
3,1,-11,-47,-31,-8,3,15
-5,34,3,73,27,7,4,41
-19,-7,-26,-16,40,13,45,10
20,10,17,-45,-19,-3,3,-25
-55,-54,-23,7,-34,-13,-4,21
30,-27,32,40,25,-4,-10,-2
-34,33,-122,-18,-10,-20,-21,-20
-17,-7,-24,-9,-12,-6,-5,-2
13,11,58,-4,-5,2,4,3
4,-16,4,-9,-2,7,-3,11
21,7,15,17,0,13,44,74
-6,8,-12,-2,-1,-11,3,3
4,12,2,-3,3,-7,-37,-84
-10,-22,0,-25,-8,-2,-30,-42
-21,-18,-3,34,-13,-4,-1,10
7,16,-40,-41,11,-4,43,15
110,-18,-4,-33,-23,2,4,21
-108,-22,-20,19,28,4,1,14
4,17,9,0,-11,-2,3,7
15,23,10,-128,-55,-7,0,7
-7,9,37,127,49,2,2,5
3,-51,-10,-36,22,8,6,12
-10,35,16,-34,-26,-22,-24,-50
-17,-31,-43,-15,-24,-6,0,4
-20,-64,-44,8,3,4,2,-2
10,-24,42,-37,-8,-7,-9,11
10,-38,11,-95,-13,0,4,4
-13,3,6,127,14,-5,-7,-35
3,23,-48,-19,19,1,-1,8
15,29,6,-64,-17,1,7,19
-15,-33,15,71,-2,-6,8,7
-30,-82,-20,-103,-32,-2,-12,-2
5,56,32,127,58,7,-6,-50
5,1,-21,-13,2,9,9,10
-10,25,-13,-16,-3,4,29,21
34,4,27,-19,-13,-1,-8,33
10,-13,2,-9,4,-4,10,-21
-5,11,1,-13,-16,-21,-41,-37
-21,0,-33,-11,0,-2,-3,-10
8,39,20,9,4,8,9,17
-5,-84,8,-7,-19,-1,13,41
-15,11,45,58,30,1,14,7
19,-31,-76,-27,2,-4,-9,-44
-2,-47,-7,104,-3,6,-15,-7
4,9,0,-53,30,4,-12,16
12,62,43,-54,-23,-6,-6,-18
12,31,46,71,0,-10,-3,8
13,-24,-31,23,18,9,5,-10
-32,6,-22,-38,-16,-5,5,10
23,-27,8,-45,-17,5,12,22
-6,26,59,65,-21,-7,0,9
19,-24,-2,83,73,26,11,4
27,11,-46,-90,-14,-10,-9,-18
-32,-13,-50,-32,-15,-8,4,3
-2,9,23,1,-20,4,18,50
-13,16,-11,1,-6,-2,-2,0
20,14,5,-1,16,-4,-48,-75
-7,9,7,-12,-14,-15,26,-10
5,20,-11,5,-5,1,7,5
-25,-70,-89,-30,-18,-7,-1,16
-15,-2,31,12,7,-1,5,24
44,21,36,58,-4,-6,2,12
66,11,-24,-54,15,2,-8,-12
-36,-3,7,-26,-5,4,-4,0
-25,4,-6,35,1,5,15,12
14,5,21,-75,-22,-5,5,1
24,21,19,89,16,-5,-4,-6
-17,-18,-18,-21,-18,-4,-1,-5
-10,-95,-28,23,14,7,-3,5
6,45,-27,17,11,3,-14,-34
-7,17,8,-26,-9,-7,12,-19
-16,-29,17,-20,-6,-6,-6,-5
33,26,39,12,-15,-4,-5,14
5,34,23,-60,-28,-4,-5,12
-6,-3,-57,82,-14,5,1,8
-40,-33,-5,-46,60,14,6,8
-5,13,4,-14,-12,-3,-4,2
0,6,16,-37,-20,5,7,11
10,3,-37,60,24,10,12,10
-8,17,31,-66,-13,-6,4,3
-39,0,-19,42,-18,-23,-18,-13
26,-33,-5,1,-3,-5,-16,-17
-16,-19,-117,-47,-9,-1,-13,-21
6,40,26,6,0,3,6,3
5,6,21,-13,14,5,0,14
-1,3,-2,-1,-10,0,2,18
-1,-14,3,2,-5,0,3,2
-1,8,10,1,-3,-1,-4,-29
-13,29,16,-96,-25,11,20,34
7,32,14,127,-19,1,17,45
72,2,-17,-79,80,-7,-3,-54
112,23,113,-36,-20,-16,-47,-90
-128,-128,-128,-46,-23,-6,-6,0
26,14,-17,-18,-10,6,8,15
18,-8,9,6,-8,4,0,5
13,15,15,1,-12,-7,-1,18
-12,17,16,29,11,4,9,13
-4,10,-2,0,1,-3,-4,3
-27,15,21,-128,-48,-6,8,20
10,8,-20,127,5,13,18,41
66,5,-12,-70,77,12,-5,-25
-44,-34,33,-46,-26,-22,-44,-99
-39,3,-22,2,-16,-9,-15,-8
-10,-1,-21,-85,-30,-8,4,16
-10,7,70,-67,-38,-6,9,21
-4,-36,-30,96,45,1,1,9
12,0,-4,-9,-4,-5,-7,0
-15,-17,-17,6,-6,-1,32,17
-11,-10,6,-29,-35,-8,-9,2
-13,13,-1,-46,3,1,3,15
-9,29,11,127,-21,8,-3,-12
8,13,49,-51,74,26,45,19
40,-13,-77,-72,-19,-14,-19,-6
38,-60,-37,-37,-36,-31,-33,-31
-42,-12,-13,-9,-14,-8,-14,-13
-22,-4,-15,3,-6,2,3,-1
3,18,24,10,0,7,8,9
1,25,15,12,-2,4,2,22
-33,9,2,1,0,6,12,15
16,-3,-6,-5,2,11,11,28
89,-16,5,4,-9,-23,-38,-56
-127,-3,-50,-8,-6,-14,-41,-112
-50,-9,14,-4,0,-4,-21,3
9,-6,14,-9,-17,6,15,18
-4,-39,0,30,19,8,32,33
2,-14,-27,-21,-11,-4,-5,6
13,48,-7,-23,1,1,3,6
0,-9,1,-52,-5,0,-3,-1
-3,27,40,49,-36,-12,-6,-22
7,-10,5,50,31,14,14,25
9,-49,-7,1,23,0,6,21
-13,-16,-40,-47,-12,-25,-37,-41
1,22,0,-21,-35,-5,-4,-41
13,30,77,1,8,5,2,11
-4,3,-49,-17,8,0,-3,2
-9,10,21,-14,-6,0,2,8
-1,-22,13,-3,-10,-1,6,5
-7,15,27,1,-4,-5,2,-2
18,68,55,2,-37,0,20,48
20,-17,-84,20,67,17,12,40
75,-26,-55,-16,-13,-24,-47,-106
-79,-49,7,-21,-19,-12,-12,-64
-9,35,40,-93,-24,0,-11,0
6,-19,12,127,54,12,25,27
15,15,-5,-116,5,2,0,19
13,19,6,-38,-29,-19,-27,7
-13,7,1,50,-4,-3,20,19
-11,-6,-11,-59,22,13,-3,0
41,4,29,-30,-16,-19,-28,-20
-12,-16,-77,26,-1,2,-11,-32
-26,-62,39,8,-7,-4,-3,10
3,18,19,-26,-5,-3,-5,-13
-27,13,15,31,1,3,8,3
12,9,-23,19,8,8,14,21
-63,-48,0,-5,-6,-8,-11,6
25,40,40,-128,-43,-9,-10,2
-10,-23,3,127,34,-2,7,-68
15,14,-69,-51,39,2,-12,-77
11,-72,27,-34,-4,0,-1,17
-6,16,-25,-20,-18,-1,-2,13
-29,2,35,-7,-11,-5,3,11
14,40,21,-120,-51,-7,4,5
50,19,-4,116,-31,-13,-16,-13
5,-29,-14,29,86,13,-9,2
-3,-30,-89,-57,-14,-3,0,3
-47,6,27,-69,-34,-14,-2,10
10,-5,7,28,-9,-4,5,15
25,-12,43,9,-3,-8,-30,-37
-61,25,-10,-18,-7,0,-7,-25
-12,-4,0,12,0,-4,-4,3
16,11,2,1,-7,-4,-6,0
-2,6,20,-55,-45,2,10,13
21,40,-5,122,79,20,19,13
-39,-11,-37,-29,-14,-21,-18,20
25,-65,45,-8,-11,-8,13,-6
26,5,29,-16,-15,-9,-14,-14
-33,5,-5,-36,-5,3,-7,-15
11,28,-35,-6,6,10,13,8
-1,-15,-16,11,-6,-13,-22,-49
-18,9,28,-3,-7,-12,-14,5
-15,-9,16,-24,-11,-3,0,15
-4,8,34,34,-74,-6,-13,5
30,29,-31,122,127,53,48,52
3,14,3,-47,1,-10,10,8
21,-21,36,-19,-28,-20,-37,-36
-51,-37,-40,-12,-22,-14,-17,-20
41,2,-6,-40,-32,-10,3,17
6,-14,7,-13,-13,0,6,14
26,25,42,52,9,1,-1,-5
-32,14,28,-37,-41,-9,-2,-4
-17,-14,-68,65,34,4,-2,-1
1,24,-13,-78,29,11,5,-1
-1,-25,2,-128,-56,-19,-8,12
-17,9,7,127,25,-5,-15,5
22,-30,-10,-18,13,8,1,-11
-11,-4,-7,-11,-14,-14,1,3
6,-66,19,-36,-27,-19,-30,-70
-33,15,11,-3,-3,-7,-12,-13
2,23,7,2,5,10,3,4
4,33,21,-8,-25,-2,20,46
39,-7,-19,72,57,-8,23,16
52,9,83,-5,2,9,-24,-47
-3,8,-128,-17,-11,-6,-6,-7
-29,-17,44,-13,-15,-6,-3,5
24,-45,28,18,3,5,10,18
2,20,9,-27,-3,-1,3,6
-10,2,-6,-53,-8,7,3,-2
-26,11,35,108,-9,-6,4,2
71,33,-22,-37,34,-4,-29,1
1,18,-52,24,6,-15,12,2
-31,-51,-35,19,-3,-1,-2,-20
-5,2,-3,7,3,7,-4,-2
-6,-1,28,-13,-17,-3,-4,8
1,5,20,-12,-36,-12,-1,17
2,6,-17,-22,23,11,1,-23
1,22,21,7,3,6,-4,-15
35,66,58,-17,-16,0,13,28
-14,-6,41,-7,-1,-11,-11,1
24,-51,-128,46,-1,-13,-31,-34
-15,9,55,-22,-5,-7,-8,-18
-88,-88,18,-57,-21,-9,-1,-7
8,42,25,87,1,6,7,19
14,3,23,-21,1,1,2,14
13,1,-6,3,-12,-7,4,11
2,19,1,-39,-10,5,-4,4
-14,16,26,9,5,19,1,-1
27,-21,-10,42,26,-13,51,24
36,-21,-125,-23,-14,-17,-43,-25
-15,24,-40,-31,-14,-2,-20,-78
-35,4,20,9,-10,-3,-3,2
-18,-15,-9,-4,-8,5,8,17
-5,-15,52,-73,-13,-2,8,16
1,3,16,127,2,-1,2,18
16,38,0,-32,26,11,12,14
21,-9,8,3,-1,2,3,-13
9,20,-32,-103,-26,-2,-9,-10
-67,-61,20,91,3,-4,-5,6
16,0,2,-2,21,4,-1,15
8,-8,-15,-42,-17,-13,-24,-59
5,21,16,-8,-10,-1,4,5
1,18,11,-77,-49,-9,-3,2
-7,1,-35,67,30,10,2,14
13,1,36,-9,31,9,-24,14
20,2,-1,0,-12,-9,31,20
-1,46,18,-29,3,7,1,-1
-40,-98,-78,-63,-19,-17,-31,-23
11,-39,26,51,-21,-10,-24,-69
-13,-5,28,18,20,-4,-2,2
-17,15,9,1,1,8,10,27
0,15,3,-1,2,2,7,17
-3,9,2,-79,-37,1,11,19
12,19,16,117,31,3,6,13
31,6,-9,-26,53,11,-6,6
7,-5,53,-30,-18,-11,-6,7
-66,-36,-71,-18,-19,-11,-11,-9
-43,-33,4,-37,-21,-12,-9,-65
19,23,30,44,6,4,6,-7
19,11,20,-1,-2,-2,0,1
35,29,18,3,0,1,5,11
-12,11,-8,-54,-13,2,10,14
-15,16,25,45,-61,2,7,27
-13,10,-31,50,105,1,43,-28
70,-5,-81,-79,-6,-12,-39,-28
-24,-86,3,-28,-22,-6,-9,9
-17,-9,-6,-10,-17,0,-5,-16
1,22,-59,-77,-31,-3,4,8
2,-5,33,127,26,3,17,36
42,19,37,-14,19,8,7,26
-113,-23,-128,-91,-43,-9,-27,-62
-14,-22,34,68,17,-1,-9,-8
-5,21,15,7,18,3,-1,-4
26,23,-8,-2,1,3,2,18
19,17,-4,-23,-9,-3,-5,-2
-11,-59,14,33,-9,-4,-3,0
2,19,18,-31,1,-1,1,15
0,0,-19,18,-34,-7,0,-4
-12,-10,-34,5,58,14,11,6
-7,20,-30,-85,-12,-14,-9,-5
19,-7,19,3,-6,-7,-24,-13
-7,8,59,10,-10,-5,-8,-21
11,-5,-42,-46,-14,-6,13,6
11,9,-8,58,10,6,5,-3
36,-1,11,66,7,-1,-31,-55
-53,-35,13,-18,-13,-1,-4,14
-39,-1,13,53,7,12,18,44
9,29,10,-10,4,2,14,28
51,34,-1,-55,-35,-14,-33,-101
-34,-47,-25,17,48,9,-3,-19
46,-37,-1,-32,5,-5,-2,27
43,25,-105,-24,-27,-11,0,32
-23,-5,14,-38,-13,-1,2,-6
-21,25,30,8,-7,0,-3,-49
11,-8,61,9,-9,0,-13,19
5,1,-86,99,3,10,22,-8
-9,15,-29,-21,30,7,9,3
36,18,68,-17,-10,-2,-19,-3
-45,-9,-61,-22,4,2,-12,-16
-26,-42,-17,-33,-20,-15,-15,-10
-78,18,52,-9,-5,2,-3,3
-27,21,-25,-42,-39,-13,-2,1
54,28,36,94,33,14,30,53
71,-20,-5,-15,2,-4,-5,21
1,-11,0,-3,-12,-15,-23,-63
-59,1,88,-34,-14,-2,-36,-56
-11,-12,-88,44,-11,-3,5,3
5,53,4,-32,35,9,26,26
4,-14,21,43,5,-7,6,24
10,-21,-28,-69,-18,-2,-4,2
-32,-41,33,18,-21,-3,-13,-36
16,23,-8,97,14,-5,-6,4
-25,-3,14,4,13,5,38,10
4,30,61,23,52,22,4,23
-35,-14,-62,-28,-23,-13,-4,17
4,-17,-8,-25,-24,-8,-24,-50
5,0,5,-24,-15,-7,-22,-42
-28,3,36,23,-3,1,0,-1
-2,1,-45,5,-3,1,8,11
1,-2,-6,-4,-4,-1,0,4
-3,0,1,11,8,11,7,9
1,15,10,3,14,4,9,20
-4,4,-9,-10,0,-2,4,15
66,19,41,-12,-22,-2,-7,0
-52,-11,-29,21,-9,2,-24,-76
-14,36,86,47,71,5,15,-5
45,-34,89,0,0,-14,-5,-22
-20,-62,-128,-76,-23,-4,-3,12
-40,17,-2,-15,-8,2,0,11
4,-24,-8,-4,-12,-4,-3,-9
11,42,34,-8,2,7,10,11
-3,22,42,-2,-22,-1,7,43
-28,7,-15,72,11,-9,26,-2
103,50,49,-31,35,2,-29,-31
19,-86,-85,-83,-29,-10,-11,5
-77,-42,31,0,-3,1,6,-4
-10,21,-14,10,4,0,9,15
-2,17,8,2,-4,-3,-1,11
30,27,-5,-64,-9,-4,0,14
-9,-19,4,45,-1,-2,-1,-42
4,5,69,3,4,6,-33,-53
-20,-37,-120,17,4,1,4,-4
-7,3,1,-16,-4,1,6,19
9,38,85,-32,10,9,7,1
-11,-17,-119,50,-15,-18,-27,-2
27,-40,20,-39,1,-12,14,2
47,25,-6,2,4,1,-9,14
-16,4,6,4,-1,4,-2,-3
-16,-8,23,-59,-19,3,4,1
-2,17,17,-22,5,4,1,2
-1,17,23,121,-22,-2,-2,0
-10,12,-15,-36,15,1,0,11
0,-15,-20,-41,2,7,8,17
18,-9,-11,70,15,-1,4,-12
13,-6,-15,-30,-16,-8,-5,-21
-18,-53,2,-38,-14,-16,-20,-1
-30,-11,39,-2,-23,-12,-2,41
-1,-3,-4,52,14,1,-5,-41
-2,10,-21,-37,4,-1,-5,-21
-3,-6,3,-60,-12,-4,1,1
5,27,59,19,-30,-6,-1,-3
-17,28,-23,81,24,8,-2,16
9,-35,14,-11,41,27,25,22
28,-31,-6,-14,-28,-29,-25,-10
-6,-12,-4,-34,-28,-5,33,20
-5,-14,-85,-4,9,-7,-10,-6
-45,5,6,4,0,-2,-15,-5
0,2,7,24,-4,4,-1,-5
2,18,6,-25,-3,-1,4,15
7,6,1,0,-6,-2,2,7
-3,1,-15,-1,-2,-5,-12,-37
30,38,7,-22,-6,9,13,13
2,-18,25,45,-48,0,1,53
24,31,36,116,127,13,22,39
-27,-52,-99,-66,-25,-25,-56,-128
14,-77,35,-30,-28,-14,-18,17
-80,27,-21,-28,-16,0,5,29
22,40,16,4,-13,-7,6,22
-5,19,10,88,-32,-6,1,9
19,8,-2,-12,42,13,7,10
14,5,15,-114,-2,4,6,14
-13,0,-25,127,36,7,-2,-11
-7,-17,6,-27,-9,-3,-5,-18
20,-14,-1,-17,-2,-7,-1,-1
-10,10,-2,0,-11,-1,6,22
-19,2,85,-11,-7,-1,1,-9
4,-32,-99,-41,-31,-7,-14,-51
-11,-10,-11,-8,-1,1,-6,-8
-26,-32,1,127,60,7,15,29
16,9,-4,-40,2,-10,-3,26
32,12,20,-18,-8,4,-11,-41
-18,3,8,-12,-13,-5,-4,-1
1,-26,-68,-6,-1,1,4,14
-5,-25,11,-8,-11,-9,-10,10
49,-19,13,-3,-6,-5,56,24
-45,-35,4,4,-6,1,-16,-64
-2,16,16,1,-4,0,-19,-19
-11,14,73,6,-12,-6,-5,2
8,9,-127,-6,23,8,5,7
-16,-26,24,-9,-20,-9,-5,-23
23,13,-34,-40,6,6,9,22
-46,1,12,-19,-1,5,12,27
-2,27,14,78,27,0,2,9
15,-51,-49,-67,-41,-10,-37,-68
-2,5,22,127,37,-1,4,7
-9,-20,-35,-43,3,3,1,25
4,46,51,-31,-22,-2,-9,-14
24,40,16,41,-4,4,38,16
-48,-85,-1,-103,-17,-2,-8,-5
8,35,28,54,3,2,2,3
12,3,6,-42,-6,-4,-1,19
1,-11,-47,-2,15,-1,-10,-2
-4,17,12,31,-6,1,-3,-18
2,-22,68,-10,-7,-5,-6,-26
-14,-18,-128,32,-9,1,-2,0
8,-10,8,-13,5,-7,-5,11
32,10,47,-9,1,-2,6,12
-13,20,13,-1,-7,-4,-26,-5
-21,-3,17,-14,-5,2,8,-5
10,-14,-9,6,-4,4,-6,1
5,-6,-70,-12,-4,-8,4,-2
29,-8,-5,6,-2,-2,-8,-18
-43,-15,18,0,2,-1,-8,1
-13,-4,-2,-9,-3,-1,-1,3
26,10,-11,0,-5,-7,0,19
21,22,2,5,-9,-3,-1,-4
-15,-52,39,-19,2,-1,-1,8
-122,-22,-82,48,0,-4,-1,-24
-9,-4,6,-5,19,5,-20,-11
-15,-16,19,-16,-3,-8,-5,-8
-6,13,8,-86,-36,-9,5,16
81,62,52,127,36,33,37,65
64,25,43,-37,20,-1,23,15
6,-111,-114,-91,-48,-37,-85,-128
-94,-9,-51,-19,-12,-11,-21,-48
-9,30,42,19,-24,-7,7,24
5,18,23,-8,13,11,17,25
5,7,-2,6,0,0,9,19
10,16,58,-24,-8,3,4,10
-7,2,-104,-67,-38,-9,2,8
-2,-24,16,127,73,9,6,0
3,22,-4,-59,-1,0,4,4
39,10,-78,-44,-22,-15,-10,5
-40,-100,36,-22,-23,-13,-17,-22
14,22,-39,-1,-14,0,-3,10
7,54,-34,8,-9,-2,27,5
12,12,12,-13,-2,-14,-31,-42
-34,-90,-20,13,-6,-3,-15,-17
-40,-5,7,2,-1,-4,-7,-5
-13,39,86,14,-6,-1,9,1
2,-6,-59,-12,-9,5,24,1
40,-22,-35,-5,18,-11,-26,3
41,38,3,27,7,4,4,3
-49,-50,-30,-26,-22,-14,-10,-16
3,5,-2,-14,-2,-1,0,9
-13,-18,18,-8,-18,1,9,21
24,12,38,105,30,11,4,7
-45,-2,-65,-52,2,-4,-17,-46
5,-11,-6,-37,-39,-12,-6,-4
11,28,27,70,-40,3,23,30
4,28,18,59,127,28,1,20
15,20,64,-54,-16,-10,1,-41
-47,-128,-106,-34,-34,-19,-22,-4
-18,-2,-47,-18,-21,-8,-10,-45
-8,30,3,-41,-19,-1,1,4
11,13,51,15,-30,-2,2,14
34,-7,35,110,41,10,8,12
-15,16,-73,-48,8,4,3,8
-18,-13,-3,-14,-12,-4,8,23
-10,21,44,1,-7,0,8,20
1,-10,-55,-3,-8,-4,-17,-60
7,-42,-14,-13,-3,-2,-27,-20
-9,-15,5,-2,-3,-2,16,10
3,-5,9,-75,-16,-9,-5,-1
12,12,5,116,23,10,3,-4
0,18,6,-61,-23,-10,-12,9
20,-7,-1,16,12,4,-9,14
-9,-20,-9,-29,-2,-3,7,8
-42,-14,25,-5,-10,-9,-7,-17
-42,38,-30,-13,-2,0,-16,-81
12,-50,41,2,-5,1,-2,4
-35,-33,-110,-33,-10,-6,-2,17
36,44,60,25,-45,1,15,38
38,2,-29,107,80,18,-2,10
13,12,-28,-123,-5,-12,-25,-60
-27,19,65,-110,-26,-5,-10,0
27,3,-37,-11,-14,-5,5,10
9,17,4,27,23,-2,-10,11
22,-22,34,-27,-11,-6,-4,-20
-118,-28,-77,-2,-23,-4,14,-28
22,-4,23,-19,0,5,-2,13
15,2,3,44,10,-4,-1,10
9,-26,-63,-83,-8,0,-2,3
7,24,48,19,-3,-7,-4,6
-9,21,27,-2,-18,-5,4,7
-8,4,-42,4,-3,5,5,-5
48,23,-6,13,-3,-5,-23,-22
-18,-39,10,-25,-5,-2,-7,-7
9,-5,32,15,-13,-3,21,12
-6,13,-57,49,19,-20,-14,15
-20,3,13,-22,-7,-1,-3,-5
-3,7,25,-6,-1,4,1,3
30,-1,-2,3,6,-1,-9,2
66,25,-6,-19,-3,-1,-16,-41
-32,15,4,-4,-3,2,16,38
-19,2,51,16,-2,2,14,-4
-3,-32,-125,-34,7,3,-3,-29
-15,-37,30,-7,-3,-2,-10,7
8,-1,4,-27,-13,-3,-8,-33
-5,11,34,34,0,-12,-8,4
39,4,-27,-76,-15,2,17,23
-2,20,-10,127,58,13,4,8
-17,3,19,9,15,4,-28,-8
-8,7,-16,-25,-16,-7,15,3
-10,-15,-18,-114,-1,-2,19,10
-10,-22,16,23,-4,-8,-10,-8
14,-3,-12,29,-12,1,-3,-8
20,35,7,-59,1,4,-1,9
-8,-11,13,-70,-22,-11,-4,7
37,14,3,127,35,10,13,36
14,39,36,-16,26,13,8,13
-104,-28,-12,-39,-25,-16,-37,-107
0,-47,12,-19,-24,-13,-22,-73
0,-19,35,-15,-6,1,4,8
14,35,27,40,-4,12,28,54
20,19,-4,-6,13,-2,6,22
21,1,-11,-35,-18,-20,-22,-36
-27,-54,11,4,-5,-6,-20,0
11,21,-2,27,11,3,-1,4
-11,43,-14,-10,-3,8,70,43
-23,-63,-11,-9,0,9,3,26
-6,-8,0,7,-2,-2,-6,-56
33,10,8,6,5,3,-19,-23
14,28,6,-14,-10,-2,2,11
-1,-12,66,-1,-16,-4,16,50
-15,-61,-87,7,-1,-10,-17,-39
-31,-45,-80,6,13,-10,-33,-90
-40,4,20,62,-2,0,-6,6
18,18,34,3,43,11,14,29
6,6,10,6,-27,4,10,21
36,14,6,-53,-14,-5,3,29
22,33,9,31,48,5,-2,-17
-15,-31,-6,-23,-13,-5,-6,-9
-16,-8,0,-16,-18,-2,2,2
-15,-15,-36,-6,-9,-5,-3,-5
0,34,5,4,-7,-3,0,12
40,10,14,-12,-12,-2,4,17
-12,-48,14,6,6,5,3,-7
-15,5,-23,3,5,-2,-19,-21
10,37,51,-46,-53,-20,-17,6
-14,-17,-8,91,54,4,2,1
15,-4,16,40,26,3,67,53
-52,-54,-71,-47,-11,1,-30,-35
-23,3,10,-18,-6,-13,-43,-87
10,7,-8,-10,-12,-2,0,4
19,23,33,-10,-7,5,11,22
-7,11,8,4,-2,5,8,24
22,9,3,5,0,0,-1,25
14,-13,-6,-16,-7,0,7,-6
-7,7,27,-89,-73,-9,5,10
9,0,-16,127,127,13,-10,-23
2,-2,26,-94,-35,-16,-21,-7
14,-2,-128,29,43,9,2,9
-13,-13,35,-87,-21,1,-2,-4
2,-48,30,40,-9,0,2,-1
-16,-7,2,1,-10,-4,0,-4
4,19,0,14,5,4,-15,-1
5,11,9,8,-3,1,6,-1
2,11,10,-7,-8,-4,4,3
-5,7,-2,55,-6,-1,1,-2
-4,5,19,-28,-11,1,1,30
-13,16,-22,-2,6,5,14,32
72,66,5,106,17,-7,41,16
65,-83,-45,-59,-10,-12,-47,-32
-59,-77,2,84,-36,-18,-33,-113
-14,15,-84,-34,66,11,-6,-7
12,-7,21,-41,-11,1,7,27
5,31,18,-21,-10,6,12,27
7,24,21,1,-4,2,9,17
4,13,18,6,-2,3,3,15
3,2,-2,6,-1,2,-2,6
1,10,4,3,-6,-5,4,13
15,0,-7,-16,5,0,8,40
4,24,-1,21,-11,0,-19,-27
-14,14,4,77,18,11,26,-31
45,16,-5,-60,20,11,-2,34
-101,-128,-9,-51,-4,-20,-37,-38
38,9,-52,-27,-19,-19,-20,-13
18,52,40,43,5,2,-4,-68
-1,-24,45,-32,-12,3,11,15
-4,-41,16,9,-4,1,5,14
-4,24,-27,3,-3,1,7,9
1,14,41,-21,-10,-1,1,6
-13,-10,-1,10,12,-1,-1,2
-2,1,-1,-41,0,8,-1,13
46,6,19,-10,-34,-3,2,-2
-33,-7,6,127,26,4,33,8
-30,5,-34,-36,34,-11,-28,-28
29,-16,-28,-24,15,2,-1,14
0,-19,-15,-63,-21,2,-2,29
-37,-77,-16,-26,-22,-6,7,-19
20,47,127,-31,-29,-14,-22,-66
20,15,-122,57,6,-8,-15,-5
-10,8,5,-5,-4,-6,-5,14
-13,5,19,-23,-9,1,-2,-28
4,-14,29,41,18,8,5,-15
12,7,24,-37,-2,3,7,17
0,-4,-18,0,11,-2,1,4
-11,-8,-48,-5,-9,-5,-6,14
-10,-24,6,-32,-17,-7,-3,5
13,10,60,32,6,4,2,-30
7,0,-62,-25,-6,0,13,23
40,0,-19,53,-8,-4,-8,0
-25,13,-42,-42,6,-1,-17,-30
21,9,24,-59,4,-1,-19,-12
-33,-23,15,2,12,0,3,26
8,25,50,-4,-18,4,60,30
5,44,20,7,8,-4,-3,7
50,-102,-44,-21,-17,-6,-18,-11
-102,-8,7,-59,2,-4,-11,-32
-37,-10,-14,66,17,-5,-13,-5
14,12,19,-58,-7,3,2,28
8,-21,18,36,-7,-3,8,-41
30,13,-8,-36,-5,2,11,11
2,38,10,34,3,2,-3,13
17,-1,-1,-25,-14,-7,-16,10
-4,-12,51,-26,-5,-10,-3,14
1,-20,-29,41,7,-1,-2,-28
-10,-4,25,10,-5,5,-2,0
23,0,-14,29,13,8,4,9
-47,7,-45,-31,-18,-4,-2,-3
-20,6,8,33,-7,-5,1,9
6,11,-30,-26,1,-3,14,35
10,6,7,8,12,3,-3,-28
-4,-1,-3,8,3,1,-22,-63
24,-23,2,-23,0,-1,-11,6
-7,13,23,-35,-23,-7,-16,4
-16,10,7,-18,-49,-6,31,26
-93,9,-9,112,75,14,41,29
32,31,17,16,-7,-10,-12,13
-3,-128,-82,-46,-13,-2,-15,-56
-19,16,67,-28,-19,-14,-21,-24
0,36,37,-1,-21,-4,1,10
-7,18,4,-13,6,4,4,6
25,21,6,-9,14,12,8,16
6,27,24,-58,-23,-5,10,21
12,12,47,127,-52,10,36,86
-13,0,-45,-56,127,49,12,-27
53,-49,-15,-93,-41,-32,-84,-128
-49,-22,29,-45,-41,-22,-21,-12
10,10,-88,-17,-23,-1,6,28
4,8,33,4,-6,-2,12,20
6,-4,21,15,2,10,42,27
4,26,2,6,-2,-2,-1,2
16,-7,8,7,2,-6,-8,7
-18,-38,-11,-6,-4,-2,-2,6
-16,23,32,-70,-30,-12,31,22
8,-3,-63,127,70,18,9,11
30,-30,9,-22,-11,-5,-20,-55
-54,8,68,-3,-2,-4,-22,-30
-2,10,-40,-13,-8,-6,-7,20
-7,11,-29,-4,-7,-4,-2,4
-2,-19,21,0,-1,0,-8,-35
12,18,29,-78,-15,-2,4,16
5,-10,-25,127,0,-4,-7,5
10,2,10,-70,-10,-4,11,38
-16,4,64,127,47,6,11,-15
24,44,-109,-106,13,6,-19,-42
-80,-123,-88,-28,-29,-14,8,-6
11,-16,29,1,-22,-7,-2,7
-22,-8,5,-21,-11,-5,-2,-4
-18,23,21,-58,-80,-10,2,-1
31,59,32,127,127,30,13,12
14,-56,-79,-127,-4,7,7,15
36,-52,21,-33,-23,-8,-1,7
-40,-9,-1,-36,-30,-12,-27,1
6,12,-8,-10,-14,-3,28,33
-7,-16,-27,25,2,-6,-24,-82
-13,15,-3,11,-3,-7,-35,-65
-17,-13,2,6,-3,-9,-8,13
9,26,11,-25,2,1,11,28
27,23,0,27,8,13,14,14
33,-13,-6,-12,1,-4,2,25
-25,-33,37,9,-15,-12,-13,8
-12,31,-109,24,11,3,22,-19
7,2,6,-22,10,12,3,4
7,-7,15,-67,-5,2,14,1
29,5,17,111,-15,-15,-14,-17
25,0,-25,-100,3,-1,-4,-4
-38,4,-4,22,-13,-13,-9,-8
-12,9,14,-36,-11,6,-7,16
7,7,12,-5,-1,9,27,36
32,-16,-23,43,-8,-14,-15,-38
-49,-9,25,42,-7,-3,-21,-33
-19,-20,-13,-38,50,7,-3,3
23,15,41,-48,-14,-2,5,16
2,-16,-44,-50,-30,-8,0,5
-7,-1,51,39,-7,-7,-2,-8
15,7,-35,60,8,-1,-4,2
-13,35,3,-43,1,5,2,0
-5,-8,28,-8,-8,7,8,24
28,18,37,37,-7,6,4,21
0,-12,-117,-8,17,1,-3,-11
-13,-4,18,7,4,-15,15,-44
3,-31,-7,-31,-5,-7,-14,-15
-1,41,0,-4,-9,-7,-13,-2
-51,-24,30,-6,-13,-4,-4,-12
32,-10,-26,-15,-8,5,10,22
3,14,-1,47,8,0,10,41
-25,11,1,-31,5,3,3,4
8,0,-10,51,16,10,-10,-54
3,6,45,-7,-20,-15,-1,1
5,-39,-53,-13,8,-8,-5,5
17,-13,7,-32,-7,0,4,15
-12,4,27,2,14,4,3,11
-3,17,25,-11,-11,-2,-25,-14
18,27,-19,5,-46,-13,-7,-22
1,35,11,65,50,12,27,16
24,36,28,14,18,2,-2,31
-41,-65,-53,-36,-11,-12,-36,-50
-4,34,71,-7,-18,-8,-20,-35
-8,32,2,-6,-9,3,12,26
14,-4,17,-4,-3,-4,0,20
-4,4,22,16,-13,-14,-20,-41
-1,7,-14,-38,-1,-1,-5,-14
-7,-2,12,20,13,8,6,20
10,3,10,3,9,9,18,28
35,50,-7,-59,3,-7,0,-8
-18,-49,-30,74,-22,-13,-21,-12
20,-4,46,-26,30,11,4,-10
-49,-15,2,-14,-67,-18,-31,-27
1,-12,-26,110,52,11,14,1
0,15,-52,1,73,8,21,22
38,31,-8,-54,-21,-9,-11,9
-36,-56,37,-16,-23,-12,-7,-9
1,35,77,3,-14,-4,-4,-4
13,14,-102,-3,-7,2,2,12
19,-26,-24,-1,-3,1,5,28
-17,14,6,-2,-4,-8,-6,-30
16,11,16,1,-2,-7,-24,-63
18,-2,-3,-2,4,1,-1,2
-23,6,8,9,10,12,13,6
-28,-1,-13,-3,2,1,17,35
21,13,48,-10,-13,-9,-7,22
70,10,-111,4,8,-9,-8,-7
-83,-96,59,-48,-14,-14,-6,-30
-37,40,1,60,7,3,-7,-29
29,-34,4,-12,0,3,-9,12
4,-27,-8,-11,-6,2,26,22
-6,21,15,-7,-3,5,2,6
17,33,1,-24,0,6,2,2
16,24,25,34,-48,-10,-9,47
41,-3,36,83,40,2,4,22
-15,-40,-108,-4,69,6,-25,-120
-15,-18,-68,-15,-12,2,-16,-47
8,17,19,11,-4,-1,2,13
-18,11,-37,-15,-15,-4,3,8
-4,-8,31,-4,-9,-1,3,15
11,10,29,3,-7,0,7,12
10,5,9,-3,-5,-4,1,9
0,6,29,-86,-67,-15,1,0
-22,-14,-21,127,75,3,0,1
-13,22,-4,18,62,14,12,22
110,52,23,-41,-14,-11,-1,25
61,-58,-42,-32,-22,-10,-15,-32
-46,-18,-49,-11,-16,-7,-5,-31
-104,-30,9,-12,-8,-8,-3,-9
11,37,-31,-9,-2,1,0,0
8,-25,12,6,-3,0,1,8
11,1,3,4,-1,-5,-14,15
13,9,-1,15,1,0,17,15
-5,7,2,14,8,3,-6,-16
-29,10,2,5,17,2,-19,-45
43,6,9,2,-5,-2,-6,13
7,-7,1,2,-6,-5,-9,3
-15,4,-8,-9,-5,4,9,12
-10,-40,-39,9,12,12,13,-22
-25,17,-8,-50,-31,-27,-38,-11
31,-19,33,-55,-36,-22,-7,8
-40,15,52,127,61,15,9,2
-27,-2,-94,-50,16,7,2,18
13,-12,-16,-8,-22,0,7,31
10,74,113,-104,-58,-17,-19,-7
10,-15,-99,119,52,-1,18,-27
-92,-15,-17,-57,13,4,-7,-18
9,12,60,-77,-34,-4,-3,6
24,-9,14,110,24,7,6,23
-2,-10,-34,-108,-40,-12,-5,1
3,33,5,60,-34,-4,9,14
54,14,6,-33,83,10,1,8
22,-19,4,22,-11,-5,-15,-24
-42,-16,-37,-16,-16,-11,-12,-13
-21,-13,0,0,-9,3,-1,6
9,11,35,-5,-6,2,-7,6
-1,8,-18,-2,1,6,25,21
-2,-61,14,3,-9,-16,-16,9
-9,-24,26,0,2,2,-8,-51
6,18,-13,12,5,3,-13,-9
2,36,15,7,6,-6,-10,-20
74,7,-65,-15,-10,-13,-10,-20
-1,-63,4,-4,-6,-2,-7,-5
-71,8,17,-34,1,4,-2,8
-6,-6,-2,11,2,2,5,13
8,10,-2,1,16,5,7,22
16,12,-6,34,-27,4,11,25
13,30,127,127,36,16,17,25
18,-34,-128,-128,33,5,3,-10
-56,-23,27,12,-19,-12,-37,-60
-4,33,48,-38,-31,-12,-12,-4
-8,-42,26,-50,-17,-3,-5,-9
5,8,40,118,-9,14,56,61
34,7,-70,-19,71,18,15,44
63,-34,-36,-96,-13,-8,-11,-82
-128,8,50,-37,-31,-22,-27,-32
-13,53,-38,-24,-22,-4,-1,14
10,-32,21,4,-15,2,2,12
9,20,25,5,18,6,7,4
-7,-33,4,8,-3,-6,0,3
5,6,-22,4,-5,-1,5,1
27,22,16,15,3,13,4,30
56,-10,-55,-15,-15,-24,15,-8
-75,-48,24,-14,-8,-7,-20,-46
-20,30,-16,57,-13,-6,-13,-25
10,2,14,-57,0,4,1,8
16,26,0,111,39,16,24,28
31,15,-13,-58,-2,-12,-8,28
33,1,24,16,-5,1,-9,2
36,-43,-41,109,30,-1,-21,-85
-128,0,19,-36,-30,-9,29,9
-8,27,2,-70,-24,-1,3,36
26,-5,32,-13,-9,-11,-5,14
41,-53,-94,23,-3,2,-20,-15
-69,-21,49,-7,-3,-9,7,-46
-4,8,-60,3,-2,1,5,-11
19,48,87,-21,-6,-2,-2,3
25,-2,-3,-47,-17,-2,-5,6
-2,17,36,73,2,5,-2,0
-5,28,6,-10,9,4,8,6
36,-9,-8,-19,14,1,2,35
6,1,3,2,-19,-10,-20,-19
-4,-4,-15,-34,28,16,7,-22
-54,23,6,-26,-17,-11,11,-7
-16,-128,31,-67,-52,-17,-16,-8
-55,34,-8,46,39,5,-6,2
10,18,-61,39,13,8,6,17
1,24,49,-7,-5,0,-1,-5
10,24,47,-7,-9,1,3,13
29,6,14,-17,-38,2,-6,-19
2,-33,-20,43,50,9,1,-2
0,14,26,-2,-12,-6,-22,-33
-6,3,-19,-42,-18,-3,6,18
-3,12,19,39,22,5,6,12
31,-33,12,35,23,0,-15,-17
-92,-40,14,-21,-6,2,-4,6
28,6,-48,-28,1,-2,-3,-3
-1,-8,-38,-10,-16,-15,-17,-29
-3,16,39,10,-16,2,-11,3
-12,14,-1,44,36,11,8,0
3,-36,82,41,3,5,34,42
40,8,-128,-33,-15,-10,-17,14
-24,11,31,2,-16,-9,15,-76
-3,-10,-14,-5,11,6,3,17
23,16,-10,-10,-5,0,3,33
34,10,24,-47,-1,6,2,-32
80,-20,22,53,-29,-18,-16,-26
-128,-6,-10,-38,25,0,-18,-20
-3,35,29,-5,-12,-5,3,20
28,43,49,81,-34,-4,17,37
15,-5,80,41,92,27,15,-5
0,-55,-128,-73,-12,-7,-29,-60
4,-22,22,-10,-16,-13,-10,10
14,33,22,-115,-39,-1,15,29
-2,-7,28,127,41,7,12,50
-27,0,-11,4,6,-2,-23,-14
-7,6,-6,-17,-10,-3,7,-83
5,9,10,-125,-41,-9,-11,5
32,-7,-25,127,26,-1,3,13
-29,-1,3,-22,10,10,5,17
-36,-45,-20,32,-10,-8,-3,-3
8,21,7,-75,-1,-1,-9,-10
5,-12,-13,-14,-19,-7,30,15
-8,58,43,-6,-26,-4,-2,15
8,1,-32,101,81,21,1,-2
16,-3,-46,-33,-19,0,0,3
-1,-23,39,29,11,-8,-11,-24
-19,-13,-13,-48,-15,-11,-2,-30
-14,-12,13,31,-18,-8,-14,-17
6,30,16,9,19,13,5,4
39,17,-29,-70,-9,-7,-35,-1
-10,17,48,71,-9,-8,13,18
5,-90,-3,-38,-10,-6,9,10
-33,32,4,32,27,21,20,51
24,34,-6,2,-2,0,-7,0
-2,-40,25,48,-15,-12,-32,-83
-2,16,-46,-19,8,-9,-22,-12
-14,13,-31,-49,-7,-1,5,8
-3,-48,-6,2,1,3,8,10
13,18,34,6,-6,-2,2,14
4,-4,12,1,0,2,4,21
7,-8,32,21,-15,-9,-2,7
9,27,-62,-53,17,10,2,-16
-22,19,7,-128,-58,-1,-9,35
-52,-65,10,127,99,9,11,-34
25,35,-39,-128,1,-2,-19,-59
-5,-4,37,-58,-25,-10,-20,-4
-11,-12,-110,-27,-34,-4,9,20
-4,-4,27,47,-8,6,14,32
-3,-7,3,-23,21,-9,29,38
15,14,-61,-38,-23,-9,-21,-31
-2,7,36,98,-14,-10,-17,-26
1,3,-5,-30,25,15,15,20
18,18,43,3,4,9,7,22
1,-2,48,-54,-34,-6,2,-3
30,4,-64,72,15,-2,-4,-11
-108,-48,5,-25,-28,-6,-5,-10
10,13,20,48,45,6,-4,-2
33,17,-12,-13,-2,1,3,6
2,20,21,-2,-7,0,7,-1
0,10,8,-6,-12,-5,-12,-3
25,22,-2,-3,-3,1,1,-1
15,-13,-1,-5,-4,5,5,13
-4,-13,1,8,-1,-3,-3,-34
-47,-57,21,-8,-14,-11,-30,-20
37,15,-37,35,28,1,32,-17
6,-1,-42,-12,-1,7,3,23
-5,5,-6,-30,-6,0,4,10
-36,-45,24,-14,-13,-8,-26,-51
14,-19,-54,-37,-18,-7,32,33
8,34,-39,17,16,1,2,3
-1,-9,37,-89,-52,-15,-14,-23
6,-23,20,92,25,14,12,16
-69,14,-20,10,66,26,15,0
20,-15,5,-59,-5,3,-18,-8
6,35,6,-10,-15,-2,-4,7
-8,-10,-20,-30,-21,-18,-4,1
0,38,25,-45,-19,-3,3,11
-23,-51,-42,15,-8,1,4,-24
-4,-11,-12,18,10,-9,-6,5
28,30,22,-54,-24,-9,-18,-40
-28,-51,12,89,1,-7,-19,-54
-11,31,38,-72,-11,5,8,15
-3,-8,-20,83,19,7,14,21
11,-1,-10,6,6,8,-26,16
19,27,-32,4,5,4,24,18
-10,-17,8,-7,-13,-7,-5,-2
-22,-25,4,-28,1,-1,-14,-28
-1,28,87,20,-2,4,-6,-11
1,-32,-112,-26,-17,-9,-7,2
-14,-21,-19,75,10,1,0,1
2,9,-2,-2,12,13,12,24
40,24,-20,-59,1,2,-3,-3
-77,1,48,1,-9,-5,-17,-29
-7,-13,-31,10,2,-5,-5,4
-6,-17,3,1,-6,-2,-2,-10
-15,-8,42,-71,-47,-25,-27,-21
-7,0,13,-6,-55,-4,4,7
9,21,8,127,127,45,15,26
-34,-20,-79,-93,-20,-5,-5,30
-12,-43,8,-42,-33,-18,25,-20
77,-39,13,-13,-35,-21,-33,-59
-6,-7,11,-21,-9,-14,-13,12
-32,3,51,63,0,0,-3,0
-6,3,-37,-25,14,7,9,2
-9,-23,8,-32,-3,-2,0,17
11,11,45,1,-17,0,6,4
8,-1,-7,16,45,17,16,11
21,9,-15,31,-6,-3,-4,-7
-35,-25,-37,-8,-16,-9,-17,-28
16,-6,5,3,-1,0,14,23
2,19,24,-10,-5,-5,3,1
-35,-57,17,0,-15,-6,-17,8
18,-4,-24,0,2,-1,1,-39
32,9,2,0,-7,-8,-28,-84
-9,-8,8,-108,-18,-8,-4,20
-14,-1,-22,84,9,5,-6,3
4,31,-23,-3,12,5,8,18
15,-40,10,-6,-7,4,10,22
-11,-9,32,-37,-16,-3,21,7
11,13,-120,13,10,0,-12,-8
-2,4,20,2,-12,-9,-12,5
-4,3,26,34,10,-1,-3,-1
3,18,-53,-8,-7,1,-5,-6
-12,-33,29,2,7,2,8,14
-19,-23,-27,-56,-8,-7,-3,-15
13,25,-11,-30,-26,-18,-22,-42
57,7,98,-128,-67,-15,-8,8
-28,-2,-75,127,107,12,-5,1
-9,-25,-15,-30,-3,5,-3,-7
-10,4,12,-24,-19,-4,1,-1
4,9,-9,-15,-9,-4,-1,7
-27,57,22,-13,-33,0,14,33
16,8,-4,35,31,11,29,13
9,-83,79,-20,-8,-23,-50,-75
16,8,-4,35,31,11,29,13
9,-83,79,-20,-8,-23,-50,-75
-8,-34,-128,-17,-12,-13,-18,-13
-32,24,-47,-32,-14,-5,-7,-23
