Channel_1,Channel_2,Channel_3,Channel_4,Channel_5,Channel_6,Channel_7,Channel_8
-4,21,6,23,-47,-13,-13,-34
6,6,33,-64,58,22,5,9
6,8,35,55,15,-3,-2,7
-12,-16,-120,-44,-24,-10,-2,-2
2,-5,-2,4,-30,-9,-31,-8
15,10,8,9,24,9,-6,1
8,7,16,88,-43,-14,74,31
-31,-14,7,28,11,9,2,2
-7,-14,-9,-50,54,16,-24,14
-6,5,-41,-19,-2,0,-8,-16
9,20,10,-5,-9,-4,-11,1
3,-18,27,-64,-39,-8,-4,-12
-45,-25,-18,-47,56,17,1,13
-7,-10,44,127,45,10,3,-8
9,22,29,-70,30,10,3,13
8,-4,-50,-25,-22,-4,-30,-22
-11,-14,-85,-10,-21,-21,2,7
1,0,84,-47,-53,-12,-10,1
-11,-8,-31,127,38,14,-10,-36
4,23,-2,-97,43,8,11,11
-3,-2,-14,-25,-9,5,4,-5
2,2,79,22,-27,-6,-13,-8
-4,-7,42,-8,-16,-5,-2,1
4,1,-29,-90,24,5,17,16
3,17,6,-14,-3,2,-21,5
-12,14,-5,-4,-10,-1,9,-8
21,-12,-21,95,3,-1,20,-1
-11,-5,18,-20,-13,1,0,6
-2,-10,-5,107,-43,-21,16,26
-4,0,-14,1,49,9,-11,-39
-13,-10,5,-10,10,2,-4,-14
15,5,33,0,-4,0,25,5
22,36,8,2,-12,1,1,0
-26,9,18,-52,-66,-24,-52,-31
-25,-68,32,75,-55,-14,-7,-5
11,16,-17,-128,114,44,7,14
-18,0,45,-7,-3,-2,-16,-80
-4,16,-40,6,-42,-9,-7,-12
3,1,-20,-42,15,4,5,10
3,3,3,5,22,4,-17,3
-3,3,7,-100,-54,-17,-8,15
11,8,1,71,71,22,103,47
4,-19,36,-87,-36,-14,-44,-15
6,18,-31,120,56,14,-20,14
-6,-15,-16,102,62,9,-26,-6
3,22,-20,-5,11,-6,9,4
1,-19,-19,-63,-36,-7,30,46
-2,0,24,127,-45,-6,3,-10
-5,3,-14,-107,64,16,-11,6
3,1,14,-23,-8,-7,-17,-45
-1,-5,-32,14,-6,0,16,10
1,3,-1,-27,-24,2,17,17
-5,4,26,50,7,-7,-5,-4
22,-7,44,-19,20,6,2,17
-14,-61,-71,-32,-44,-12,-13,2
-39,28,-14,127,8,-2,-8,-13
-4,-2,14,-31,17,3,2,-5
-7,1,10,3,-3,-6,-10,-48
-3,13,-10,-26,0,2,-13,-48
7,7,30,-68,-43,-11,-8,-4
-6,-11,23,97,10,2,-21,2
1,-1,-47,7,4,-6,-20,-4
6,-8,8,-86,-47,-10,11,13
-14,-5,-23,127,55,7,25,27
9,38,29,-25,-7,-1,-23,17
-5,-13,5,-14,4,4,4,-10
-2,4,22,-110,-32,-4,-12,-15
7,7,44,69,-16,-17,-16,-7
-4,6,-34,81,25,3,2,4
-6,-8,-15,-38,6,4,-2,7
-7,28,23,-11,-17,2,0,-10
9,12,8,-41,-14,-2,7,18
-28,-55,-11,-39,-32,-9,2,-14
7,-4,7,31,31,13,9,-9
13,14,13,-16,3,-7,-11,15
2,-15,-27,14,0,-6,43,15
-1,17,56,7,-11,-8,-24,35
6,-11,-49,-98,-37,-15,-14,-7
-7,1,20,116,-28,-6,-8,-34
2,-7,10,-52,48,15,-1,6
17,44,37,-37,5,0,2,9
-9,-4,-35,-5,-10,0,2,-1
-7,-40,-31,-103,-35,-9,-4,-2
3,7,12,127,-15,-8,-1,0
-1,-2,19,97,24,4,2,3
-4,-13,-28,27,5,0,3,17
5,11,46,-50,5,9,2,28
1,-28,-70,-2,-21,-13,1,-4
5,2,-2,7,-52,-30,-35,-71
-46,-36,6,-66,2,-7,-17,-30
-18,2,14,73,40,14,8,-27
7,16,9,-36,-67,-21,-12,17
1,-49,12,-75,2,22,18,28
17,22,22,-16,89,30,16,-10
-2,-10,-74,-106,-15,-2,-9,0
-6,13,50,-128,-67,-14,12,8
9,-11,-7,121,5,-1,-12,12
-4,-19,11,-29,26,0,-5,-7
11,1,-15,-4,-3,3,-19,-6
19,16,5,32,-17,-9,17,56
-19,7,11,24,6,-1,-7,-23
12,-10,-7,-29,-9,-9,-22,-39
-28,23,-5,31,-4,-4,-8,-8
-5,-10,38,73,-26,-7,-2,5
0,1,-21,-128,34,17,-4,10
0,-3,-6,-26,-6,-2,-15,-31
1,0,-14,24,-9,0,7,2
3,2,11,25,-2,-1,50,33
-6,-10,17,4,-8,-14,-49,-19
6,12,1,1,-16,-8,24,27
-3,-8,14,1,-40,2,5,-8
-5,-2,-14,-39,38,19,3,5
-5,-14,33,127,-35,-13,-13,-6
6,6,-67,-84,127,45,15,2
-12,-6,2,-81,-14,-17,-13,-11
2,7,-37,-44,-26,-10,-4,2
14,10,19,-68,-41,-6,-5,-7
5,-35,-36,79,-12,-6,-3,-1
-22,-13,25,65,-30,-8,-5,1
-9,4,-1,-63,17,8,4,-2
-20,-6,17,-52,-22,-7,4,0
3,4,-27,127,39,-6,-35,-33
13,-5,-26,-128,2,10,11,26
-4,21,56,-74,-6,-2,4,26
-14,-56,-52,11,-66,-11,1,-15
6,-5,-15,1,63,15,-26,-6
3,-5,10,-128,-36,-5,18,-37
-4,-12,7,127,10,-9,-6,14
-4,-4,-24,-13,15,7,-7,-5
-9,11,12,-11,-17,-5,-10,-16
0,-3,-5,5,-14,-7,4,11
3,-2,16,51,-42,-16,-11,13
8,12,32,-32,22,8,15,-5
-14,-32,-60,-2,22,7,-12,-37
15,-1,2,-14,3,14,-10,16
-3,15,24,30,-9,1,38,24
1,2,7,-11,-7,-5,-25,-19
-5,-2,-20,4,-3,4,18,24
-15,-10,30,-72,-37,-15,8,4
-2,0,1,-119,-7,-10,-41,-22
1,-5,-55,69,-1,-4,14,9
4,8,-10,66,77,29,16,35
24,0,33,-87,-5,10,10,-6
-17,5,1,67,-25,-15,-11,-36
-19,-19,33,0,11,-6,-30,-19
-23,-40,-24,-46,-28,-9,-20,-39
15,10,7,54,-23,-6,65,68
18,24,8,-47,14,7,-5,23
-1,11,14,-11,-46,-13,-7,-25
-13,-32,-14,-25,11,-3,-14,-28
-11,-10,26,-26,-28,-12,-14,-2
-1,-1,-16,127,35,5,-13,9
10,-9,-15,-69,102,18,38,19
-13,9,68,-43,-10,-7,-2,27
28,7,-88,-21,-28,-16,-22,-27
-19,-17,3,-5,-23,1,-12,-35
-14,-7,10,-29,-19,-11,-13,-10
-1,-1,15,75,-16,-2,20,8
12,5,7,-4,-65,-5,6,69
9,16,35,71,115,19,15,3
3,14,-10,8,-1,-4,-8,-62
14,-10,-53,-20,-17,-13,-23,-25
-17,-5,10,-7,-3,5,-31,-11
-4,7,47,-128,-105,-14,49,60
25,18,-2,127,112,21,21,28
-13,-5,-27,-58,40,7,-7,-10
-17,-4,-36,-14,-6,-5,-23,-66
-20,-50,6,-23,-18,-1,-14,-7
-2,13,36,4,-21,-3,0,3
3,-5,-3,15,-11,-6,1,5
7,22,14,-45,-32,-2,11,16
27,-6,-25,68,23,16,1,40
2,5,15,-9,9,6,-6,-65
-42,-19,-1,-72,-52,-16,-28,-55
1,23,-38,59,54,9,24,29
-9,-11,-9,127,-20,-16,-26,-24
-3,-8,5,-128,-21,2,31,15
5,5,16,-11,-11,1,-8,10
3,5,8,5,-5,9,18,42
5,4,9,3,-5,-3,-12,-7
10,13,4,33,-9,-10,-31,-82
24,8,13,-94,-22,-1,21,47
-18,17,14,127,21,14,9,38
-4,-16,-58,23,10,-24,-24,-51
-17,-36,-14,29,-5,-6,-5,-6
-1,-16,-3,-41,10,-1,-2,-6
-3,-3,16,-23,-19,-6,-1,-4
-1,39,4,-24,0,3,-12,-2
14,3,9,28,-2,4,21,47
21,11,-2,-8,11,4,4,-50
2,10,9,-16,28,15,0,-19
-19,13,-6,-11,-12,-2,-16,-37
-6,6,29,59,-33,-3,1,20
-11,-29,-5,-89,-1,-10,-25,-9
8,-6,-35,-28,-36,-10,1,23
5,-3,23,38,21,1,14,38
-23,6,-5,10,9,-3,-3,-12
23,1,9,-31,-5,0,-19,-56
10,-7,-7,-9,35,14,22,30
8,26,11,81,3,5,-16,7
-15,-40,-55,-98,-22,-10,-16,-58
-15,-23,12,59,-51,-24,-7,0
3,13,14,19,1,-7,42,35
-13,13,-65,-75,61,18,2,10
2,-40,33,14,2,14,18,44
31,35,58,-52,7,6,-24,-32
0,-20,-49,-13,-20,-15,-18,-29
-9,-36,-23,-4,-9,-14,-5,-12
-8,-4,3,0,-8,4,-1,0
-8,33,78,1,-11,-6,-9,-70
-6,23,72,0,-64,-14,-11,11
-4,-69,-128,-28,83,16,8,26
10,-25,-4,4,19,9,32,22
0,14,22,-26,-47,-17,-12,-61
-1,16,-7,127,28,6,-22,13
-2,-29,24,-30,21,13,7,14
-16,-6,-1,-12,14,-4,-3,-46
8,-19,35,33,-17,-12,2,16
-6,-3,-21,32,-30,-15,-16,2
5,12,8,76,-11,5,5,12
4,8,-11,-128,23,6,1,3
3,-8,5,-128,-86,-38,-16,-2
-20,-24,-37,127,97,22,28,9
-6,-19,0,-73,11,0,-4,4
3,0,-8,-17,-16,2,7,-6
7,42,44,-3,-11,10,3,2
9,-2,-11,-20,-22,-16,39,51
1,0,18,4,-16,-4,-25,-16
-5,12,40,-1,-31,-9,-6,-21
-9,8,-32,127,4,-5,-12,-24
17,20,40,-44,50,26,8,40
-1,-25,-44,-53,-9,-10,4,-10
-13,-20,-7,44,-15,-10,-12,-34
-12,9,0,7,-2,2,-5,-3
1,-40,-17,5,0,1,4,12
2,-2,9,-3,-6,-3,0,11
-1,18,12,-79,-49,-10,-6,-2
0,-13,-15,127,39,2,12,11
9,-13,-9,-36,13,2,-6,-8
-2,-5,-3,35,10,4,-4,-2
-13,-16,1,-27,-12,-2,-5,3
1,5,-2,-2,6,11,8,-8
8,12,32,4,-50,-6,1,4
-9,-9,-35,26,26,-10,-19,-9
10,-15,29,-34,10,5,34,31
-7,17,-10,-7,5,-2,-15,-39
-10,4,-13,43,-42,-6,-8,-21
9,6,-11,-47,-9,-10,-5,0
2,10,5,72,59,12,8,42
-13,51,21,-5,4,-12,-15,-30
-17,-63,45,-43,-59,-14,-13,-34
-4,-45,-17,21,56,20,6,-5
31,55,-2,-45,-9,12,12,38
-25,-28,27,23,-17,-15,23,5
-14,-22,-20,-14,2,-21,-13,-16
11,9,18,9,-13,-6,-4,-3
3,14,4,5,0,1,3,14
6,-6,-3,18,-3,2,5,7
2,29,33,-22,-13,2,-1,0
9,25,20,29,-17,-3,-26,-19
6,21,10,20,-6,-11,17,3
-19,-34,-17,67,28,8,5,0
-3,-4,-24,-15,31,11,3,4
4,-8,-23,-9,-12,-7,12,47
9,6,-4,-4,-11,-3,-4,-3
-12,8,6,-5,-17,-6,-73,-117
-4,16,15,-93,-42,-9,8,9
14,9,0,127,9,5,33,36
5,-15,-3,-66,47,12,-24,-13
1,9,2,-18,-3,-7,-15,-27
-5,5,-28,-17,-12,-4,1,8
-12,-22,-23,-5,-13,-3,6,14
4,20,15,2,-11,-8,0,9
-3,-16,9,-90,-63,-10,-5,-14
-5,16,-5,83,-20,-21,-21,-14
0,-37,16,76,65,33,20,10
14,-17,-30,-128,47,25,5,4
9,-4,-108,-16,-13,-4,-11,-10
-36,10,7,-5,-25,-8,10,13
-2,-1,1,1,-22,-9,-2,-2
-3,-2,19,4,-15,-4,-1,4
8,33,11,4,-14,-14,-5,19
4,-14,-28,-3,3,5,9,2
-10,2,12,2,1,0,-7,-10
-8,-20,-50,-13,-11,-6,-8,-26
0,-1,-23,24,5,-5,-2,-24
7,82,49,-97,-16,-5,-4,36
-21,-29,127,127,-106,-39,-11,-17
5,-2,-128,-125,127,38,5,-1
-14,-22,-43,-18,6,16,12,27
2,9,22,34,5,-7,-6,-21
7,17,21,-12,-17,-5,-4,6
1,10,22,-4,-23,-7,1,3
-4,6,-14,-9,-33,-9,-34,-12
-8,-16,32,-24,-9,2,13,1
-2,27,6,-60,-29,-17,-18,-3
24,1,50,127,69,8,-7,13
-15,-32,-128,-78,35,3,-6,-7
-4,19,8,-28,-4,0,-3,-27
-12,-10,-29,-10,-19,-13,-6,26
8,4,47,10,-11,-6,-22,5
-24,9,23,8,-12,-3,-17,-66
13,18,2,-3,-25,0,9,14
10,12,-10,53,30,14,13,57
-21,-60,-8,2,-9,-11,-12,-44
-7,-27,1,1,-7,0,-33,-35
5,36,-14,-2,-12,-12,20,17
5,-14,-3,-46,-44,-8,11,16
11,59,25,75,55,14,8,15
4,7,-9,-50,-6,-7,0,4
-13,-4,37,14,0,3,-2,0
-13,-25,-60,-15,-8,-5,-6,-3
0,7,3,54,14,8,-8,-3
12,5,17,21,-21,-1,18,62
9,22,6,-78,37,16,18,33
-4,-35,-4,-4,-7,-9,-40,-108
-40,-15,0,2,-4,-8,16,-55
-3,-4,-6,-46,-23,-9,-8,-2
25,6,56,46,17,13,13,47
2,81,37,-27,-22,-10,-4,0
-30,-38,-17,44,26,7,-3,1
-10,-55,16,-128,-81,-20,-14,-2
-1,0,41,127,60,15,-7,-6
28,2,-24,-128,94,23,18,17
-4,19,-71,-20,-10,-3,1,16
-3,-8,36,-8,-8,0,-2,-7
0,-6,45,-21,-25,-4,3,0
-8,8,-23,55,-4,-8,0,2
-8,-8,6,-41,-30,-7,-5,-2
1,-31,13,2,-18,-2,-2,1
-5,-17,-5,31,47,14,5,12
28,26,-48,-5,-9,-7,-7,9
-10,17,7,-4,-13,-8,-33,5
-26,-9,25,-5,-10,-4,-8,-71
-7,-32,0,-6,0,-2,46,18
11,12,8,-7,-11,-2,11,26
13,-6,32,-59,-33,-10,-57,-70
23,37,-38,86,36,8,-6,9
-9,88,-7,46,34,-7,-18,-3
-12,-85,25,-47,18,19,4,1
1,-33,-2,10,-4,4,14,18
-7,-13,1,-19,-9,-10,-8,-4
-4,-8,14,-10,-13,-5,-2,-10
14,2,-7,-6,-12,0,5,42
10,55,17,25,-8,-2,39,30
0,14,7,55,-14,-8,-12,-44
-6,5,-25,-58,43,15,-1,-6
4,4,4,-14,15,-4,-11,-1
-35,2,44,19,-9,-4,-6,21
-14,-11,-55,9,-23,-9,-12,12
-2,10,6,-70,-15,-6,11,-9
1,15,49,127,-88,-41,-24,-41
26,46,-2,2,127,49,20,18
1,-37,13,-37,50,13,-2,-19
-3,-42,-20,-39,-21,-2,2,14
5,-17,-53,-14,-26,-6,1,4
3,33,-10,-5,-21,-6,-20,-11
-13,30,34,-22,-20,-5,-15,3
7,43,26,34,-14,-6,52,26
9,49,17,44,30,11,3,2
16,2,-6,-8,-5,-5,-6,6
-10,-39,-1,-2,2,4,19,8
-36,-55,0,-5,-18,-11,-42,-29
-23,10,2,22,-19,-7,-12,-7
20,18,-1,15,-14,-11,0,13
22,9,7,-20,24,-4,7,6
-9,-4,-36,-8,23,14,-12,-26
-13,-35,42,-7,12,6,5,-13
8,22,19,-2,-12,-6,13,26
1,8,-36,-7,-14,-9,4,27
8,36,2,5,-10,-1,28,13
3,14,-1,4,-8,0,-2,21
-2,-9,4,-35,-8,2,-1,-20
1,5,3,43,-4,-5,17,-2
-22,-13,-3,-7,-7,0,-19,-28
-2,8,-16,39,15,-4,12,-15
7,-22,3,-18,-11,-20,-22,-15
-37,-59,-10,-11,-4,-7,-50,-6
-1,17,18,-8,-13,-4,-4,26
-5,23,31,-3,-35,-6,8,-13
11,7,-15,43,45,15,9,-15
11,6,-6,-35,-16,-3,-8,-9
5,-1,12,-35,26,12,13,26
-8,-49,12,-5,-9,0,4,17
-8,-3,-52,-22,-29,-8,15,9
-6,-24,-65,40,-88,-29,-29,10
-4,-59,-14,27,97,19,20,26
-5,22,16,-6,5,1,4,-33
-1,12,-2,-10,-8,-11,-28,-51
-10,23,-11,-8,-12,-2,-12,9
4,-11,26,33,-72,-21,1,35
-2,5,-13,68,70,10,12,18
15,4,-57,-115,-3,-7,-12,-38
7,42,16,7,-2,1,-13,-48
-20,6,7,11,-10,-2,-5,2
-6,-12,33,7,-2,-5,3,19
-14,-13,47,-53,-67,-17,10,10
4,-61,-90,60,36,13,-2,-1
-2,-27,-72,22,41,14,-10,-3
-2,35,17,-6,-8,-4,21,2
31,73,48,-2,-8,2,51,-6
1,4,-2,-7,-6,-3,16,65
-37,-27,-1,-16,-25,-13,-25,-27
-1,-73,30,53,-51,-21,-22,-59
-7,-9,-17,13,75,18,-3,1
10,28,9,-48,19,2,2,-4
1,-16,-17,50,-19,-4,-2,-4
0,6,-13,-60,-24,-6,-1,-2
2,15,-4,-5,-1,2,5,19
6,10,0,1,27,5,-3,1
10,-49,-22,47,11,-3,3,-14
-37,18,33,5,-8,-1,-20,-40
2,44,15,-4,-12,-3,18,9
-1,7,17,-11,-18,-12,11,21
-3,-25,-31,-2,1,4,6,-1
11,3,-4,-8,-6,2,-9,5
-1,-16,-2,-25,-12,-5,-9,3
-3,-16,6,55,0,-1,6,11
1,9,-4,-59,3,0,1,-15
6,7,-4,12,-13,-9,-1,4
-9,45,17,40,-38,-4,1,19
-4,-11,-30,36,63,4,-12,-58
10,10,1,-11,1,0,-7,-4
-29,-35,-14,-46,-43,-13,2,11
4,-3,11,127,-20,-14,-1,2
4,17,55,-17,47,4,4,2
8,-14,0,-128,27,7,6,4
-4,5,-62,-28,-11,2,-21,4
10,9,1,5,-17,-3,75,77
-1,-18,6,1,-15,-5,0,-27
-21,16,30,20,-51,-19,-33,-83
9,1,-22,1,29,2,-8,-1
10,-28,20,-24,13,11,-1,6
-21,-20,-19,-6,-9,-1,-1,9
1,-8,17,-12,-18,-2,13,3
3,-1,-34,14,11,-6,-46,3
11,-8,8,-9,-4,-3,-2,5
8,46,21,-7,-11,-1,-4,-6
-15,29,-8,-14,-8,1,-21,-10
14,52,49,110,-114,-13,10,19
1,-47,-52,114,113,1,39,6
2,25,-12,-50,72,14,0,-2
-13,-42,-8,-2,-10,-4,-11,-13
-6,-24,-95,13,-22,-6,-10,-2
-10,-20,14,-3,-23,-6,-6,-4
-3,7,14,-2,-16,-5,-13,-1
8,1,17,1,-4,3,9,-2
5,16,15,-10,-5,2,2,8
1,18,11,-20,-25,-5,2,7
-4,23,19,15,-24,-6,-13,-36
18,-24,-16,-51,89,23,11,11
21,8,-20,-19,17,1,-1,0
-17,-2,8,-8,-10,5,4,23
-1,-18,-7,-7,-25,-8,-6,-16
-21,-15,-2,-2,-15,-3,-2,-7
2,21,3,25,-24,-8,0,5
-2,22,-22,-23,11,2,2,2
-9,-12,13,-5,38,7,-20,-10
8,-10,5,-3,-6,-1,35,8
13,3,22,8,4,1,6,17
-9,13,-12,-6,-12,-10,2,-3
11,-12,-12,4,7,-5,-5,9
-48,-6,-8,-22,-35,-20,-15,-45
7,-4,12,2,-23,-8,-15,-28
-13,-7,-18,-54,36,10,0,7
19,13,34,123,-1,0,-6,4
-9,11,24,-128,33,11,16,25
-10,-55,-128,11,-6,-1,-1,5
-5,-4,-6,-2,-6,-2,-4,-21
-2,-13,5,-13,-22,-13,-14,-11
10,24,25,7,-11,-4,-2,-10
1,-9,9,3,-4,-1,-14,2
9,19,3,2,-9,-5,24,1
8,41,-1,-20,-16,-5,-17,-5
-22,-28,-11,5,14,-4,31,22
-5,-17,7,17,5,3,1,-4
5,18,6,-42,-45,-9,-4,23
-2,-9,-19,69,80,20,3,12
28,10,4,18,-5,0,-12,-46
-54,15,13,-25,-46,-11,-10,-1
3,-16,-23,-22,89,24,9,-4
-5,-20,-32,-51,-11,-3,-12,0
-10,34,19,-4,-28,-10,-6,-4
2,-7,21,-8,-35,-10,0,2
12,7,27,12,1,1,2,5
11,14,-111,35,22,7,22,4
-4,22,11,30,-23,0,-14,6
2,8,51,31,20,-6,24,27
-4,25,7,-41,7,-1,-37,-95
-4,-7,-14,4,3,-6,-22,8
11,4,7,1,-6,4,25,20
5,22,-2,20,-24,1,10,28
2,-10,-18,32,14,-9,-10,-16
-8,2,-14,-18,8,-7,-25,-39
-20,-25,8,-6,-10,-6,-18,-13
1,15,34,-8,-11,3,6,4
7,0,-33,15,5,5,3,8
-1,-38,-49,-23,14,6,7,6
3,7,8,-14,-7,-2,-10,-1
9,1,1,-36,-56,-16,-26,18
-7,-16,-5,48,36,8,3,-17
-3,-14,-4,26,37,6,4,10
9,-7,14,-1,-4,4,1,0
-27,5,0,39,-81,-31,-19,-12
2,13,-26,-43,82,15,-2,2
-1,10,-7,-28,9,6,-4,3
2,8,4,7,-14,-6,6,5
11,-1,-30,-1,-15,4,6,37
6,-6,-45,1,-15,-11,-6,-14
-31,-70,-9,-2,-14,-8,-15,-79
-10,9,11,23,-9,-7,-11,-2
4,-9,0,-31,-25,-4,-4,7
12,19,3,20,-19,-5,-3,16
-1,-7,22,111,60,21,15,23
4,-25,-54,-89,32,1,-4,-17
3,-39,-21,5,-13,-3,-10,-12
-33,-6,24,-12,-8,-11,-10,-3
1,20,8,-5,-32,-6,1,7
-2,-32,2,22,-63,-14,-12,-3
-9,3,-19,51,67,4,26,-10
4,45,35,5,8,5,1,-15
3,-41,5,13,-19,-2,0,16
-1,-50,-66,-42,-6,-6,-2,25
-16,10,-15,-18,-17,-13,-21,-60
-4,-4,35,52,-78,-15,-8,-8
-7,-15,-5,116,89,16,6,4
9,9,-22,-55,16,6,24,11
-4,1,28,12,-9,4,-19,-9
3,9,-9,-9,-12,-5,13,16
7,18,-7,2,-1,3,7,17
4,11,24,7,-9,-6,-28,15
-14,-36,-6,-2,-7,-2,72,15
-15,-16,6,7,-5,-7,-11,-35
-1,7,7,19,-10,-3,-10,-8
2,5,-11,-35,0,2,-3,5
7,10,-4,9,1,5,4,8
5,3,-8,-14,-14,4,2,17
-15,-24,-13,57,-3,-7,-4,-4
1,-27,-17,-12,9,-3,-10,-19
4,13,66,-26,-59,-13,-7,12
4,-19,-37,65,62,12,9,10
-4,-10,-48,-68,-5,5,6,-3
2,33,16,48,-47,-21,-14,-7
-21,-78,5,-17,35,14,-2,-16
6,-11,6,-20,5,10,5,8
6,12,34,121,-66,-14,-25,0
-2,-21,-30,-72,42,2,67,28
-7,6,-4,21,-7,-2,-3,-32
-2,-30,19,7,-15,-5,-9,-6
17,-7,-54,11,24,1,5,19
26,33,25,13,1,2,1,32
-62,-30,23,-10,-21,-9,-9,-37
-7,-18,3,4,-7,-1,-13,-26
-4,-23,-1,-6,-7,-4,-7,-1
11,12,-25,32,-37,-4,8,2
5,11,-10,-17,64,6,-22,4
5,44,-15,-38,-8,-5,6,8
-36,-128,12,25,1,0,1,-6
4,24,-6,-5,-8,-2,2,9
-4,2,-44,-15,-5,-1,-4,-4
3,17,14,66,-26,-3,0,-9
5,10,18,-27,-44,-6,-12,3
12,18,-21,-60,81,17,35,12
-13,-12,4,54,6,-2,-5,-46
4,1,-8,-78,-1,-1,-1,3
-2,-15,20,4,-20,-4,-5,0
-6,-28,-55,-12,-2,-1,-6,-2
1,-1,8,-6,-12,-8,-5,0
15,30,26,2,-10,-8,-18,0
-4,-13,10,51,-5,0,45,16
-17,23,-13,-22,5,0,4,4
2,8,9,20,6,-2,-2,14
10,11,-20,-29,-39,-10,-14,-19
-1,-18,25,0,-20,-6,-4,-15
5,6,-14,-30,77,20,10,-9
12,10,-21,-32,-26,2,5,7
-16,-50,-23,66,11,-7,-19,-6
-7,6,-23,-10,-25,-6,-3,0
2,-10,18,-9,-18,-4,4,11
7,-4,-26,6,29,4,3,-6
-6,25,9,-9,-5,0,-7,-45
6,11,28,47,-64,-10,-8,15
-10,-7,4,68,17,0,35,21
-13,-66,-70,-112,59,3,-16,-24
26,17,4,-34,-18,5,-17,1
-11,0,77,39,6,2,13,15
-21,-38,0,15,-8,-4,-9,3
1,-2,-54,13,-12,-6,6,1
-6,24,-19,-25,-33,-9,-7,2
9,-32,50,82,4,3,0,3
13,22,19,-17,57,12,2,3
-35,-20,-30,1,6,3,-1,-6
5,-22,-45,-6,-6,2,6,9
18,29,30,71,-13,-5,-4,14
3,5,19,-64,-11,-7,4,8
8,39,29,3,-27,-14,-6,-5
-14,-58,-93,-33,56,2,-10,-16
-17,-31,33,31,2,5,-4,-35
12,11,-6,-98,10,7,-2,6
10,30,-19,70,-5,-5,-35,18
11,9,-28,-6,8,-3,0,7
-4,-93,45,-42,-55,-11,-6,-10
-5,90,-5,24,112,15,3,8
4,40,-28,-13,-12,-7,-15,-3
-4,14,-15,6,-24,0,25,26
-6,-51,-10,7,-12,-7,-21,13
8,-4,-4,51,-22,-12,13,-20
7,-4,9,-54,-15,-4,-5,-3
-1,-19,16,94,34,16,12,18
-2,4,-6,5,-4,2,-1,-1
-1,22,-13,-42,10,0,-10,-5
2,46,24,5,-19,-5,-12,-4
-7,-11,5,5,-10,1,4,10
17,-28,-3,5,-19,-6,-11,26
-5,46,-13,33,5,-1,1,-9
-13,-14,28,-8,43,0,-14,-68
0,-6,-40,-11,2,4,7,6
-11,-30,-4,-17,-15,1,-4,42
0,44,24,9,-13,-14,-13,-39
12,20,-4,3,-16,-11,-7,-2
-18,-62,24,-22,-26,0,-1,0
8,15,14,9,-32,-4,-2,1
7,22,8,15,62,11,3,6
17,24,-41,-43,31,5,4,4
-14,-53,-1,-71,23,9,5,0
9,37,25,5,-27,-8,-2,7
24,30,59,74,-120,-18,-5,0
-32,-67,-20,-86,91,5,-9,0
-17,3,-17,-13,27,7,-42,-24
4,-11,-19,2,-25,-7,41,72
59,43,-31,17,-17,-2,48,51
1,86,40,7,-18,-6,-24,-79
-72,-57,-29,-19,-11,-20,-97,-127
-30,-128,-24,4,3,2,-33,-23
15,30,29,6,2,5,26,42
16,16,-9,-6,-3,3,21,18
12,10,19,14,-23,-9,0,17
0,27,10,-59,-12,-12,-10,-9
-8,5,2,109,-52,-4,5,-4
-12,-51,-52,-29,127,20,4,1
8,22,-20,-23,11,1,3,6
3,48,11,76,-66,-15,-3,3
-6,-72,-53,-61,43,-3,-7,-8
3,-57,-35,-36,-7,0,0,-1
-10,59,7,10,-17,-10,-13,19
11,-14,0,46,-64,-24,31,11
-30,-39,26,29,19,13,-4,-26
-12,3,-53,-31,34,6,-5,-16
3,-13,1,2,-1,3,3,6
9,11,28,53,-10,-9,-28,-6
4,-5,6,-14,-7,-7,-10,-9
3,3,-11,-8,-21,-10,19,10
-4,-16,7,-15,7,6,23,30
1,6,1,-13,-21,-6,-11,-5
-2,11,58,28,-47,-10,-9,-5
3,-11,-47,16,24,2,-4,-12
-2,-19,-117,-128,87,25,1,-19
-8,-9,-25,-90,3,-3,0,5
2,2,-5,7,-21,-10,-27,13
30,-19,40,12,-17,5,61,53
0,51,46,29,-18,-5,-10,-2
-6,-2,-14,-15,-12,-5,-35,-80
0,29,12,-60,-27,-11,-3,22
1,20,-14,44,11,-4,-7,8
-25,-14,-8,29,-8,-5,28,2
-7,-74,24,-26,-57,-9,-5,-2
13,37,36,107,19,-13,-17,1
-6,-14,72,127,-115,-6,-1,-4
8,2,-69,3,127,51,16,8
17,-11,-92,-96,4,11,10,14
-21,13,15,44,-39,-6,-2,-9
-1,21,33,43,-49,-14,-5,-6
5,-24,24,33,-29,-5,23,22
-2,-4,-2,15,-18,-11,-4,1
-11,-52,-16,-11,-1,-7,-44,-22
-3,-18,16,-11,7,5,2,-8
4,37,-11,1,15,1,4,-65
-20,-41,38,-14,-2,-8,-26,-26
-17,-35,-110,-24,1,-3,9,2
-24,-36,-31,-19,5,2,11,11
14,14,21,-9,4,6,4,4
29,30,7,-8,12,5,-21,27
-2,-14,27,2,-8,-6,-15,-7
-18,-25,-12,8,21,5,32,-20
-18,-8,4,-6,4,-3,-13,-21
7,-1,11,33,-39,-13,-45,10
0,10,14,-21,-34,-10,-4,4
37,78,27,12,26,8,10,27
-1,-20,4,-59,35,9,16,2
-12,-26,-76,110,85,21,-6,-16
-9,45,-25,-43,-20,-5,-20,-11
-15,-24,6,-6,-21,-11,-14,-7
31,23,36,4,-17,5,47,84
-15,45,41,0,-12,-3,-19,-33
-11,-46,5,-1,-13,-17,-7,-64
-25,-74,14,-11,-51,-14,-15,4
7,0,27,-27,-31,-10,-9,4
8,10,-51,-34,73,21,11,20
2,29,-55,11,35,9,3,8
7,11,19,18,-6,12,11,14
-6,2,4,10,-7,-6,-22,-4
1,25,-5,13,-17,-8,-10,-13
20,-1,16,-2,-5,3,12,14
-3,7,13,42,-5,-4,-10,8
-14,-37,-28,-83,-10,-1,13,-24
-6,79,69,47,-124,-27,-19,-24
0,-38,25,65,100,10,-5,-6
22,-31,-59,-128,103,32,13,30
-26,14,-53,-42,-51,2,8,7
-25,-45,-11,-42,-36,-2,-3,-13
7,11,9,50,-42,-9,-5,-4
-4,-46,18,-33,11,-7,-5,0
6,18,-30,-3,54,6,1,4
5,-26,28,127,-60,-12,-8,-5
-8,0,-40,-128,52,1,-10,-3
15,12,20,-44,-12,-2,32,-13
30,22,39,5,-18,-21,-9,30
-16,8,-51,35,12,17,5,12
-18,-22,5,-23,-60,-14,-28,-31
-1,-35,-2,-16,3,1,12,-5
-7,-17,-22,50,66,4,4,7
7,23,4,1,1,-1,-4,-2
24,35,11,-5,-12,8,-4,60
24,19,4,0,-6,2,22,58
-32,27,-20,-25,-27,-21,-39,-117
-24,-35,-24,-13,-8,-13,24,7
-20,-116,17,24,-31,-18,-32,-8
-1,38,28,5,-26,-9,4,0
-6,-30,-1,-63,-55,-13,-18,0
14,56,-78,-6,118,33,-6,20
13,10,-22,-52,-3,2,7,10
3,-10,21,10,2,1,16,19
6,56,14,-21,-26,-6,-2,9
24,14,-29,-20,-33,-17,-4,2
5,-71,32,99,-7,6,5,-13
-25,6,-23,-78,-3,-1,-12,-50
-18,57,-37,-53,20,0,-10,-16
4,-79,31,1,-4,-8,-1,0
9,5,-18,5,-5,-3,-42,-27
-14,-43,-16,0,-5,-2,40,34
8,17,-3,-18,-40,-12,12,22
-4,-15,-5,-6,-44,-10,-16,-35
-21,-10,-6,-62,5,17,-2,-28
3,16,-50,109,85,15,-2,-4
-1,6,5,-55,9,4,5,-5
-9,-36,-14,-22,-20,-7,17,8
-1,-4,3,-35,-28,-11,-11,15
13,11,-19,38,-28,-10,-15,36
-7,16,-20,-31,-15,-7,-11,-39
2,19,-7,-95,-1,0,-4,-16
7,-25,-7,127,31,11,-1,-10
-11,24,26,-32,-41,-11,-6,-5
-17,-8,-29,46,79,20,10,11
-24,-8,-45,-11,1,-3,2,-2
-3,15,34,-16,-80,-15,-4,0
-3,-9,27,-19,-15,-13,-12,-3
36,48,-29,4,61,20,12,15
7,31,-10,-16,-20,2,-11,18
34,9,58,69,24,12,9,21
-34,-128,-36,-55,-33,-21,13,-49
-21,-10,27,-14,-48,-19,-7,-31
-9,27,33,-36,-94,-17,-57,-6
3,-12,-57,59,127,42,16,22
8,12,3,97,3,7,7,14
18,26,-8,-3,4,8,10,13
12,32,33,-23,-19,-7,0,10
-19,-41,-3,-27,-54,-9,-5,-2
5,6,35,125,-31,-9,-9,-7
14,31,-42,-128,83,20,-9,-2
-6,-42,-7,1,-6,-4,7,7
11,9,2,-22,-17,-4,-12,-6
-9,-12,14,52,-5,3,1,10
-3,-5,3,7,-10,-4,-4,-17
24,-14,9,-1,-2,1,-4,-24
1,5,0,-10,-8,0,-8,35
13,-30,-11,-9,-8,-13,26,30
-21,-17,-9,-9,-3,-1,1,-84
-6,5,7,-10,-5,-3,-24,-19
16,44,17,-29,-53,-3,6,6
21,6,22,-64,-17,-12,-34,10
-16,-28,1,85,67,16,-4,-7
-7,-34,-77,-128,90,31,19,9
1,12,13,18,-63,-12,-5,-1
7,22,-14,0,25,-5,-4,-6
8,47,75,6,-112,-17,4,3
-26,-26,-128,-128,127,36,15,9
24,-30,-9,-4,-7,-5,-1,1
-30,-13,-31,-12,-39,-16,-13,-9
-11,8,43,-7,-33,-4,6,-3
-6,3,8,31,-19,-9,-5,-5
2,-4,-1,-37,-6,-7,-6,-2
21,43,49,-98,-103,-18,-11,0
-4,-14,30,127,50,4,24,2
-8,-3,-107,-128,127,32,-9,0
-2,-15,-3,-27,-9,1,12,-8
9,5,16,-3,-22,-5,12,17
-10,-1,10,8,-26,-15,-18,-10
-4,8,-1,4,-20,-12,-15,-16
1,16,8,5,-9,-4,3,-1
23,-1,23,20,10,8,-7,41
11,7,14,17,6,-10,-28,-2
7,7,-23,-8,-18,-10,-5,-36
-22,-35,-15,9,5,1,-3,-10
-12,9,-3,3,-2,-3,-14,-34
2,4,-4,6,6,4,0,2
14,59,5,6,-22,-3,6,9
-11,-5,5,-61,-43,-14,-9,1
9,4,-51,87,70,11,16,36
27,33,59,-31,-96,-20,1,42
-21,-43,-87,127,50,0,-2,-41
-47,-96,-22,-5,49,10,-5,-76
-8,4,-21,38,14,0,-6,-15
7,31,60,33,-121,-29,-10,14
0,-25,-44,-128,117,35,20,19
12,7,-21,28,24,13,12,15
7,16,16,-6,-27,-8,-2,8
15,32,-8,-5,-32,-15,-6,3
-8,-24,5,16,-24,-7,-5,1
10,36,55,-12,-4,1,-20,-9
-2,11,13,5,0,-5,2,-4
-8,8,-5,4,2,4,13,4
-4,-30,-5,-3,-3,-4,30,9
-1,-26,-8,-8,-2,-6,-48,-5
-1,-3,20,-9,9,3,-4,-3
2,2,-9,-13,-28,-6,-4,-7
-8,8,-16,21,10,-13,-8,-12
9,3,-2,44,25,8,2,2
3,22,84,-7,-128,-15,-17,-11
-17,-40,-113,127,127,23,7,4
-6,6,-23,-126,-13,4,11,7
2,-3,-2,-36,-32,-15,-13,-13
19,-1,14,-17,-21,7,21,17
-16,4,10,7,-17,-1,-10,1
-8,18,-27,-52,-19,-16,-32,-17
-21,-4,19,8,5,-7,37,-12
-11,-14,27,1,0,-1,0,4
-6,-13,-1,9,6,2,6,5
-4,-8,-3,68,-3,-6,-12,-10
18,14,5,-116,-26,-11,-9,5
-7,-19,2,-59,-15,9,3,-2
11,23,-51,9,82,19,7,14
2,16,13,-38,6,6,6,-9
-11,-7,2,-4,-23,-8,1,-2
1,-10,9,22,-13,-5,-32,-28
24,7,13,20,-10,-1,32,43
-16,0,16,-7,-35,-12,-22,10
-10,33,-36,-83,17,-3,-1,-10
-12,-18,-3,47,15,5,-5,-45
-6,-10,-4,5,-2,-6,-5,3
1,-3,1,-7,-11,-1,-2,4
7,14,41,-8,-52,-13,-1,6
-10,-19,-7,-4,-15,0,-2,-2
9,7,-21,21,63,25,-19,0
6,4,3,-25,9,5,20,12
13,23,31,-59,-120,-24,7,16
-11,-11,-35,127,103,10,-9,-9
-1,15,-11,31,13,1,-9,-11
-3,-16,2,-4,-9,1,-6,-2
-5,-14,-4,-34,-32,-9,-6,-7
0,-6,4,-15,-22,-12,-6,-4
-4,-25,3,33,-4,-5,-5,-1
8,19,9,-57,-21,-2,-1,3
-11,-39,-35,26,13,3,-4,0
5,33,11,32,12,0,2,-4
8,-2,-13,-47,6,5,2,-3
-14,1,25,-4,-56,-12,-12,-13
-7,-22,3,-34,22,12,10,3
6,2,-26,74,59,8,-4,-1
1,8,2,-17,3,-2,-28,-10
-1,0,45,13,-60,-9,4,-7
-16,-8,-20,5,50,8,38,0
20,14,-24,-11,7,23,65,43
-6,-13,-24,-6,-16,-26,-44,-11
1,-20,-9,-4,-15,-14,-40,-7
-3,7,12,-14,-14,4,-19,-36
-18,-14,3,-13,-8,-8,5,2
-2,2,68,8,-107,-15,1,-5
-7,-12,-44,123,90,2,-7,-8
-5,-14,-72,127,116,20,6,-2
10,17,1,-32,16,4,5,4
2,5,-26,-44,-26,-2,1,0
-6,-9,17,-19,-23,-3,1,-3
-13,7,17,-43,-74,-20,-7,-6
0,-15,-1,32,18,-5,-2,-1
20,-16,-6,27,48,21,13,10
-21,-19,9,-11,0,4,1,2
-19,-5,20,-8,-20,-11,-5,-9
14,2,-9,-7,-15,-8,-6,-13
-37,-30,-44,-54,-22,-10,-6,-7
-7,-17,34,113,-37,-9,-8,-5
9,15,-23,-20,67,10,-24,-15
11,9,12,-68,-12,2,-2,13
-5,-9,23,-103,-29,-8,41,20
-2,7,-24,57,52,7,3,-7
-7,5,31,2,-3,-6,-12,-21
-5,-3,14,-12,-19,-4,-9,5
6,-3,6,-13,-11,2,-2,1
-4,-9,-9,-16,-11,-4,-10,-8
1,9,-2,-31,-16,-5,-8,-8
1,13,5,1,-15,-2,-11,-7
-7,-15,27,-82,-44,-13,21,10
-2,8,-18,95,37,14,-7,-13
5,-30,-34,39,83,21,24,32
-12,-6,-11,-64,-6,-9,-35,-14
-1,17,14,-45,-39,-20,25,-9
5,13,24,-26,-27,-14,-6,-1
-4,-2,8,72,-15,1,-1,-1
-3,-9,-38,-6,16,3,-4,-2
0,5,6,7,-7,-2,-8,-5
-1,13,30,-9,-5,-4,15,-1
3,6,12,-2,-2,6,4,4
5,12,-26,-7,-7,-4,-63,-25
-2,-6,10,-78,-52,-14,9,15
10,35,34,34,-48,-27,6,7
-23,-48,-3,85,52,25,7,-5
6,-5,-41,-80,37,20,12,3
-6,0,-11,-1,17,-2,-2,-8
-2,11,31,-28,-29,-11,-5,-3
-5,-10,-34,-19,-43,-17,-10,-8
-5,-32,-4,7,-3,-3,-2,-8
5,6,-16,8,3,1,3,-1
9,16,0,-25,-26,-16,-11,-2
13,23,43,-19,-14,-2,0,-1
-13,-14,-7,-1,5,4,6,-1
0,18,45,-36,-95,-29,-8,-6
1,-9,-36,127,127,22,5,-3
-1,-5,-27,-122,11,-1,-2,-2
-1,-6,9,-116,-46,-2,-3,-5
-1,-1,-42,127,97,14,3,3
-2,5,-6,-12,-6,-3,1,2
-3,0,-1,-19,-20,-3,-2,-2
0,3,23,-30,-30,-14,-12,-6
-4,10,56,30,-72,-27,-41,-20
3,-1,-66,-56,114,34,41,19
7,14,4,-23,7,-4,3,6
-16,-49,-40,-79,-39,-8,-10,-9
-15,-10,19,109,-36,-13,-18,-10
-6,-6,-8,-89,1,0,-7,-6
2,2,7,-61,8,-1,1,-1
6,-3,-47,53,18,8,1,-1
-7,-4,-11,-11,-17,-6,-7,-8
1,26,-9,-16,-12,3,9,8
-4,-1,3,20,-4,-13,-13,-8
10,13,19,-48,-65,-21,-15,-6
-6,-11,0,-86,-40,-14,-4,-7
2,-30,-51,127,127,33,13,4
10,-12,-5,-65,15,7,6,1
-25,-19,0,-28,-23,-7,-4,-5
-7,-3,6,-12,-18,-8,-22,-10
-2,0,-4,-5,-18,-3,2,-4
3,2,11,7,-11,-3,2,-1
1,3,2,0,-9,-6,-6,-2
6,10,-5,10,1,-3,-25,-6
-6,-14,-6,-28,-53,-6,4,7
-10,-28,-38,12,43,1,11,-1
0,-1,-22,34,23,-3,-3,-5
-1,2,2,9,-6,0,-5,-2
-2,3,2,-14,-12,-3,-6,-1
1,6,6,-23,-6,-3,1,-1
0,8,26,-84,-31,-6,-2,-2
-12,-28,0,125,-38,-11,-9,-8
4,-10,-57,-56,60,20,3,-1
0,-2,4,-49,-18,-5,-13,1
0,-4,8,-30,-10,3,40,19
-13,-9,12,63,9,-12,-9,-11
0,3,-22,-12,-14,-10,-36,-6
-9,-13,-25,-10,-11,-6,-4,-10
8,15,24,-27,-14,7,9,1
6,31,55,39,-47,-9,0,-3
-7,-22,-46,-96,40,15,-16,-8
8,22,17,70,22,-1,4,2
0,-18,2,12,-18,1,40,17
3,21,-6,-26,11,3,2,6
4,2,-11,-9,-12,-3,9,6
1,6,27,7,-10,-7,-15,-15
-6,-11,-7,-10,-18,-10,-17,-6
-3,-8,-30,-52,-18,4,2,11
8,9,14,63,21,2,8,11
-4,-12,-20,-23,-5,-14,-10,-21
5,10,18,-24,-21,-10,-10,-11
2,12,31,87,-22,-1,-20,0
20,40,-11,-36,45,9,4,5
1,-15,1,103,-13,-8,23,3
-17,-35,-37,-110,28,10,10,-6
-13,-67,25,-20,-20,-15,-21,-13
7,19,-3,20,-14,0,-30,-8
3,19,-9,-20,-11,-6,16,-3
11,19,-3,-19,-18,0,24,17
0,-2,8,11,-18,-6,-24,-6
14,33,13,-128,-95,-22,-15,0
-13,-40,-38,127,119,13,0,0
1,1,-18,-60,31,9,4,-7
-1,1,-3,-41,-15,-12,-9,-14
0,0,0,-28,-17,-2,3,1
1,2,0,-78,-39,-11,3,0
-9,-4,37,43,-26,-2,-11,-9
-1,-12,-5,-40,44,10,-3,17
5,18,-45,-15,18,-1,5,-3
-15,-9,10,3,-9,-13,14,2
1,1,9,2,-12,-3,6,9
-7,-16,-20,4,-6,-4,-19,-19
-1,8,0,9,-2,-7,-15,-16
-21,-40,38,-128,-127,-13,6,-12
-6,-30,-57,127,127,29,9,4
6,7,-21,-46,23,-2,-3,3
-11,-26,9,29,7,11,6,3
1,3,4,-8,-12,-7,-4,1
0,-4,3,-23,-18,-6,-1,-3
-3,-13,6,-9,-16,-3,-6,-5
9,11,-9,0,-12,-2,1,0
-9,-12,1,-5,7,-6,-14,-9
2,-3,-13,-55,18,5,4,2
9,7,20,9,8,0,6,4
-7,-3,-18,1,-11,-1,-3,-3
-6,8,-10,-48,-13,-3,-10,-6
5,-4,19,100,-54,-15,18,4
2,-25,-11,-21,104,30,1,1
-15,-29,-45,45,47,9,-1,11
-1,19,7,-10,-13,-4,-14,-16
-2,-25,30,98,-27,-4,41,-1
5,-1,-1,-128,-6,1,6,10
-31,-35,25,-71,-46,-18,-49,-12
5,32,-8,43,-14,-2,9,8
-7,-24,-41,-106,10,-1,0,-4
5,14,-9,15,0,-14,-13,-13
-9,-37,-14,123,63,11,3,0
0,8,15,-22,-17,-8,-3,-4
0,19,9,-15,-15,-4,2,0
0,-26,21,-23,-21,-2,-13,-16
10,27,6,-7,3,-4,-7,2
9,-1,8,-4,-12,-3,40,29
-22,-14,-3,46,24,0,-2,-3
-8,-3,-23,-114,-21,-22,-16,-13
-6,-3,12,91,-64,-14,-9,-12
0,-18,-47,-1,87,25,10,4
-7,-7,0,-47,-2,3,-7,-16
11,4,-50,-20,-7,7,-7,9
1,5,23,-50,-26,-10,-6,3
-15,-9,28,45,-62,-20,-26,-13
2,-6,-25,-86,61,21,38,10
5,7,-13,-48,-11,-6,2,2
2,-10,13,-8,-50,-11,-13,-9
4,-5,3,-28,42,11,-2,7
-4,16,24,-8,-8,-7,-19,-11
4,-6,-28,1,-10,-7,9,0
-28,-1,22,-49,-23,4,24,9
-8,-22,44,127,-41,-6,-19,-1
19,-1,-68,-116,110,38,38,9
-6,-10,-11,-16,-1,-6,10,3
5,14,23,-6,-21,-16,-42,3
-4,8,32,9,-14,-10,-3,8
7,26,-43,-31,-35,-8,4,3
0,7,1,57,-13,-4,0,-15
-3,5,8,103,68,14,0,-38
-2,-19,17,1,-5,1,2,4
-15,-31,-12,-5,5,5,4,10
16,18,26,29,-13,6,11,37
-1,1,19,-70,-45,-24,-21,-3
9,25,-56,-36,92,15,10,-11
1,17,-26,-41,-2,-1,-35,-5
-19,-28,8,-44,-23,-10,-10,-48
8,20,30,-55,-22,0,46,29
-3,-6,18,127,-15,-2,-7,-5
-1,-15,-20,-83,10,-1,-6,2
-4,1,-14,36,13,-2,-17,-8
-1,7,16,29,1,3,21,5
9,0,-20,-55,-4,8,22,31
13,4,-8,-15,-10,-2,-66,-2
-20,-13,5,-6,-9,-9,-3,-10
-6,11,12,-36,-15,-14,-7,-10
-6,-22,9,118,-14,-3,0,-9
-12,-50,-18,-78,23,8,5,-7
1,16,22,12,33,10,-21,-7
8,4,-36,48,4,4,19,7
-9,-12,-41,-86,-30,-14,-15,-7
-7,-6,20,8,5,6,-15,-14
10,11,7,55,16,1,30,38
3,23,11,-65,-40,-5,16,44
14,12,7,17,11,-1,-7,-28
-22,-56,30,-46,-63,-15,-17,-50
-4,-29,-57,127,80,24,-2,-22
-21,-4,-41,-93,36,9,4,14
0,15,17,-70,-37,-12,-7,3
5,8,18,-7,5,0,2,9
2,6,-18,0,-5,-4,-4,2
-4,4,4,-8,-19,-15,-11,-7
3,21,43,-1,-11,-6,-3,1
1,-3,-40,-1,-6,0,3,0
-2,-19,-48,-14,-8,-4,-1,-2
2,10,-35,-27,-44,-9,0,1
-17,-29,12,3,12,-2,-3,-8
3,3,0,-6,23,8,5,4
4,8,18,-65,-23,2,2,-8
-5,-6,-19,111,41,-2,-4,4
6,3,8,-9,2,-4,-10,1
-4,-3,12,-12,-10,0,13,-3
-4,2,-8,-1,-8,-2,0,-4
3,21,-2,-95,-99,-26,-8,-6
-17,-45,-4,127,50,8,-8,-10
7,4,-32,-128,71,26,-4,-2
-3,5,-1,-37,-5,-3,1,4
6,10,23,-31,-22,-5,6,11
-1,-3,-9,-7,-32,-13,-4,-6
5,31,62,-128,-128,-40,-24,-26
-3,-39,-60,127,127,16,-4,-13
-16,1,-38,-102,19,8,3,5
-21,-53,20,-44,-18,-2,-4,-5
-6,-15,-23,-22,-24,-6,-2,-3
1,-16,6,-37,-12,-4,0,-1
-7,1,11,20,-28,-4,-1,1
-2,1,-3,36,24,0,-6,-1
9,16,-8,11,2,-1,-1,1
2,-8,-17,-44,-68,-2,-13,-9
0,-9,-29,73,74,12,13,42
1,-2,-5,-1,-2,-2,22,28
-10,-1,-21,7,-3,-5,-5,-54
-22,-5,24,-10,-6,-11,-12,-44
8,1,0,-9,-17,-6,-12,3
-4,-12,16,-16,-87,-8,3,7
-4,-23,-61,48,127,32,10,9
7,16,11,-3,17,12,2,6
1,7,-15,13,-16,0,0,1
-8,-10,-15,-64,-14,-16,-10,-8
0,-6,-8,6,-7,-4,13,-2
8,20,18,-106,-54,-18,-20,1
-1,-11,23,127,28,4,-19,-2
0,-2,-68,-10,21,2,3,-1
18,22,-36,-19,-15,8,15,23
0,-15,24,-17,-24,-2,6,-7
-22,-3,5,37,24,7,14,-8
11,1,3,-25,-10,-11,-14,-9
-37,-22,3,12,-1,-11,-12,-12
-9,-4,6,-15,-30,-6,-2,-1
5,5,-10,37,9,-2,0,2
6,23,38,-101,-76,-11,-24,-19
17,10,-45,127,116,30,59,63
-10,-13,-13,-119,-9,-13,9,7
4,51,85,37,-25,-21,-19,-34
-1,-3,-48,-10,30,15,-3,0
-13,-57,-33,-128,0,10,-2,-8
-4,-3,-13,127,-5,-2,-7,-2
2,14,10,18,13,-2,-12,-5
2,2,-2,-11,-12,-9,6,15
1,12,-1,-40,-36,-18,-1,7
-2,2,13,-55,-40,-8,1,1
1,4,23,36,-15,8,24,-13
18,16,-5,127,115,30,9,29
-15,-6,-45,-75,5,-9,-43,-48
5,-28,6,-23,-24,-23,-29,-40
-34,-19,-46,-33,-31,-6,-2,2
-5,12,28,-12,-8,4,16,16
6,17,19,-7,-10,-5,-5,7
0,-5,19,-8,-36,-2,-2,2
3,6,-8,34,45,5,-1,1
-7,8,20,-11,4,-8,13,10
27,51,3,-17,-6,-9,-43,-7
-9,-45,0,29,-2,18,26,17
3,18,17,3,-6,1,7,6
-20,-32,-12,10,15,-16,-13,-51
-10,-21,-14,21,0,-5,-5,-4
6,10,9,-5,-1,1,-10,-2
-15,1,-5,-22,-17,-2,-8,-12
34,23,6,4,-14,4,18,58
-9,-17,-26,-12,31,1,11,17
3,-15,8,-94,-33,-18,-41,-123
-64,-4,35,52,9,1,-20,-23
-11,-12,-57,-29,-3,-2,-1,3
14,13,8,-22,1,3,3,14
9,21,13,38,-5,0,-4,7
-12,-43,-37,-52,4,3,1,1
14,6,1,4,1,0,43,21
5,-2,-4,7,6,2,-24,-13
2,14,31,46,-8,-5,1,6
0,3,2,-48,-2,4,-10,20
-1,-5,-14,41,15,-6,-2,-5
-11,-42,24,-41,-38,-14,-2,-21
-7,2,-3,127,-13,1,-7,-17
11,17,-58,-117,70,30,19,2
-8,2,-17,-97,-88,-64,-30,-26
-15,-11,10,-128,-61,20,22,9
2,30,8,-128,-18,-5,16,24
-10,-17,-38,127,89,19,15,24
9,3,-24,-128,20,2,-8,-35
6,17,11,-38,-17,-7,11,1
-2,2,24,-29,-24,-7,-17,-25
2,17,24,-5,-20,-8,-34,-57
-13,-36,4,-3,-21,-11,-27,-7
10,2,11,12,-7,-7,49,56
1,-10,-19,28,8,-1,14,34
-4,10,1,11,4,8,0,-27
-3,-9,7,1,-6,-2,-14,-17
23,1,3,10,13,17,10,6
-35,7,10,4,-7,-5,6,28
-16,-53,-29,-9,-4,1,17,-5
-5,7,22,15,4,-6,-24,-36
-6,11,-2,-2,-4,-11,-17,7
5,0,4,22,-10,-2,11,-17
-10,-34,-30,-53,4,4,2,3
-16,-17,14,49,-8,-5,-15,-9
1,1,2,-24,7,-2,-8,4
14,28,24,-61,-23,-4,14,21
-10,9,-39,127,66,-10,-8,-8
19,17,1,0,-14,-11,-5,-2
-5,-43,-26,-79,29,28,17,10
-11,-18,-13,-47,-14,-5,-2,-5
17,58,41,60,-13,-9,-5,0
3,-16,41,-128,-109,-33,-31,-10
-4,-33,-42,127,127,22,14,-4
5,-8,-34,-128,5,14,13,19
-6,20,24,-43,-9,-4,-6,15
-10,12,25,-18,-35,-12,-16,-65
-10,-2,-23,8,2,-7,-8,-13
18,15,31,-29,-9,-13,0,15
-24,-42,-46,42,-12,-5,-7,-2
2,1,-22,78,12,-1,-10,-1
2,17,9,-17,-25,-30,-43,-34
2,-14,3,5,8,9,24,15
22,72,21,14,7,-11,11,9
-5,-25,3,-70,-13,18,10,8
5,37,15,72,-26,-19,-20,-10
-9,-7,-23,-66,-20,-15,-19,-17
-7,-47,-27,30,72,36,22,15
-2,-2,-36,-32,-4,-6,2,9
-7,9,9,-73,-42,-9,19,15
5,4,19,32,-5,-8,-21,2
9,0,-3,-47,20,-5,-28,-24
1,-18,-17,-15,-9,-2,-7,-33
-26,-18,15,-9,-6,-4,5,-16
3,38,-9,-59,-73,-14,3,20
3,1,-7,127,127,31,27,47
-14,-14,-5,3,1,-6,-8,-20
10,34,-4,-20,-17,-17,-14,-6
-13,-21,1,-18,-3,6,5,0
3,1,6,-16,-10,2,-2,-3
11,19,17,-16,0,3,20,35
9,10,7,9,-5,-7,-9,7
3,-2,-8,-13,-1,3,-24,-36
3,0,4,25,-12,-9,6,42
-18,4,7,24,-9,-5,2,-13
8,17,23,-14,-20,-2,-1,-34
10,38,-42,-68,62,-22,5,14
-8,-67,-19,41,19,21,17,22
-11,-1,3,-22,-19,-7,-6,-40
-4,23,29,-42,-49,-6,-7,-21
-13,-35,-16,4,-12,-12,-15,-4
-4,-17,-21,-38,-9,5,8,11
-4,-13,-27,-2,-3,-1,-11,-3
13,21,17,-24,-9,2,20,25
6,10,21,-4,-23,5,22,33
7,-20,-19,55,12,-8,-7,-13
14,-5,-50,-8,25,10,2,-7
-23,-12,1,-18,-7,-5,4,-10
-1,49,47,8,-11,-18,-30,-10
-2,-22,4,-34,-16,18,10,0
8,20,5,-3,11,-9,-9,5
-9,-22,-4,11,-12,-17,-13,-11
-9,-21,0,-39,-6,10,-14,-17
3,9,2,-41,-29,-18,0,6
4,4,17,35,6,5,32,40
3,3,-4,-78,-28,-12,-15,-7
-1,-1,-18,70,36,5,8,-2
4,25,27,-28,1,-4,-15,-34
-16,9,33,7,-31,-5,-8,1
-3,-23,-36,101,62,14,1,16
-15,-51,-1,-83,3,6,2,-14
6,1,9,25,0,0,-2,-5
-9,16,-5,-45,-13,-14,-23,37
6,2,5,-10,-13,-10,10,-41
1,15,-6,-3,12,4,-6,-4
13,23,22,9,-18,-3,-7,3
-8,-9,7,-107,-80,-16,-33,-13
1,-25,-48,127,108,50,73,48
-1,-11,1,-11,3,-2,-4,4
15,0,0,-23,-16,-10,-18,-16
-11,-2,9,3,-19,-10,-13,-9
-5,20,22,-128,-128,-24,-10,-3
-1,-27,-78,81,127,28,11,7
-5,1,-4,-59,-2,4,3,2
6,33,13,-23,-16,1,-1,-7
12,2,16,-9,-16,-3,6,12
-9,-43,-10,-65,-22,-4,-9,7
4,25,4,83,6,-5,-18,-11
-11,5,20,-128,-63,-54,-48,-25
4,-6,12,127,28,43,39,51
17,30,-16,31,34,7,6,-24
-11,-5,-4,-7,-12,-18,-39,-58
-26,4,-1,-2,-1,-4,2,20
4,-1,5,-21,-15,-10,3,-14
5,10,31,41,-6,-6,16,12
7,17,9,-7,-23,5,7,22
-5,-48,-43,-128,7,-2,-2,7
-11,-10,-23,-61,-9,-17,-21,-23
-15,-34,0,25,21,18,0,-49
1,-2,-17,16,8,5,3,7
11,25,14,124,8,2,5,11
-16,-11,-11,-61,-8,-21,-15,-6
4,32,36,-114,-44,-15,-10,-3
-2,-25,-11,31,-8,-3,5,8
-8,-41,-40,31,52,16,-7,10
2,-26,-21,33,3,-10,-5,-46
-14,20,5,-125,-10,-4,4,16
-1,25,-1,-8,-41,-15,-4,26
11,1,15,60,-6,-1,-28,-37
-6,9,-21,38,25,-3,6,-33
6,-1,-18,4,-10,-10,8,12
-2,9,-6,-21,-19,-6,-7,2
-7,-12,-1,-80,-15,-4,9,4
4,8,4,49,-16,-8,-4,13
6,0,1,-2,18,13,17,26
8,55,15,-2,6,10,5,20
-9,-17,-27,-15,9,-3,-17,-36
5,2,-2,-24,-11,-5,-16,-52
-25,-22,0,15,-11,-9,-10,5
23,20,36,-107,-33,2,12,48
10,-48,7,100,-43,-16,-1,41
19,2,-22,32,73,1,-7,6
-42,-37,-19,-28,32,14,5,-38
-21,-8,20,-37,-24,-10,-19,-53
-2,31,13,-30,-24,-3,-5,-2
4,5,-23,-17,-26,-8,25,11
5,5,2,3,-11,-5,-4,8
0,-15,-9,-11,-5,0,4,4
4,6,23,-22,-19,-1,-24,9
5,-5,8,26,34,10,54,32
19,73,38,20,14,-9,-15,-17
-23,-44,18,-65,-75,-34,-66,-44
-5,-66,-44,20,55,36,33,36
15,12,-11,-18,1,0,26,6
-45,-30,9,-11,-10,-2,-7,-33
-11,40,37,0,-19,-4,-9,0
16,-30,3,18,-21,-8,-5,-2
2,-13,-26,-35,27,2,6,15
-2,-3,-8,-2,-1,-4,-1,6
-2,18,15,-18,-22,-7,-17,3
3,1,10,64,-16,-1,3,-10
1,1,-27,54,54,10,25,0
0,3,-14,-56,9,3,2,11
19,8,15,-25,-14,-6,-19,-4
-6,8,37,-128,-101,-10,-5,2
-28,-31,-43,127,81,7,13,1
7,0,-17,79,34,3,0,7
-11,-24,-30,-56,10,3,-1,-4
-2,19,15,13,-11,-7,-10,-13
0,-10,10,-31,-27,-3,-14,-35
0,8,5,-34,-4,-5,-7,-3
-2,-9,14,-36,-15,0,-21,-22
2,18,27,53,-14,0,13,32
14,8,1,20,41,16,55,63
-4,-14,-3,-69,-17,-6,-69,-59
-2,11,-13,71,5,-11,20,10
-7,-9,-1,-42,-13,-20,-16,-11
15,12,7,28,-2,13,32,14
7,10,-25,1,7,3,-4,13
-1,-45,-4,5,3,7,-34,-22
-8,0,6,-8,-7,-5,-4,-5
-13,7,11,-44,-51,-16,19,27
0,23,22,90,16,-7,-4,3
6,-6,-29,-66,34,16,7,-10
-12,-9,13,18,-39,-4,-11,-15
-14,6,-29,14,33,1,-3,-2
7,3,37,-128,-67,-6,5,-1
-6,-11,-2,118,18,-5,-4,-8
3,-19,-31,109,75,16,9,41
4,12,-7,-59,-11,-1,-4,-28
0,3,13,-68,-40,-7,-5,12
6,30,16,0,-9,-12,-4,-29
-19,-30,7,25,-30,-14,-25,-38
20,43,25,-89,-15,-5,15,31
-28,-46,-58,127,63,13,8,11
-21,-17,-31,14,-8,-9,-7,17
-6,0,17,-7,-1,-16,-34,-21
1,-10,-3,-35,-7,14,19,26
-1,-21,-2,-19,-10,-4,3,-43
8,21,-4,-12,-5,-1,11,9
4,8,-3,-14,-14,-20,-26,31
-22,-2,5,65,-31,-17,-11,-61
-27,-40,-44,-99,21,10,0,-10
13,48,19,-2,-9,-27,-14,22
11,-2,29,-9,-6,17,11,18
3,2,-13,-27,12,-1,2,-12
-7,13,-9,22,10,2,-22,-41
3,12,11,43,-23,-3,-1,8
1,23,-25,-36,37,2,18,15
4,-9,11,-12,-9,14,11,22
3,32,-21,-128,-77,-42,-30,0
-10,-10,11,2,1,-19,-17,-27
-1,-2,-11,111,29,18,32,26
12,-19,-16,-79,18,12,6,-32
0,20,-6,-48,-18,-1,-7,-7
-1,25,32,-15,-24,-7,-3,5
-13,-17,-23,-9,-13,0,5,0
4,-12,-9,-86,-32,-17,-9,1
8,16,11,61,-13,-9,-8,0
18,9,-26,69,40,17,8,-15
-8,-24,-2,-7,-7,-22,-27,17
-12,8,-5,-10,-4,-4,20,-1
-15,-58,-31,-48,-12,1,4,-14
4,-5,6,-7,-4,5,9,35
6,14,1,-26,-13,-3,0,13
-6,9,17,-36,-41,-6,-13,-70
-23,-28,-23,127,55,7,-31,-25
4,23,-9,-52,28,3,-4,19
-8,-23,1,-12,-22,-20,33,23
0,4,6,0,-5,2,-2,7
19,30,20,-86,-29,1,6,23
9,4,7,91,-26,-2,10,26
-13,-8,-28,4,43,1,-9,-31
9,-12,-7,-58,0,-1,-13,-33
-34,2,43,-15,-75,-17,-12,26
-7,-12,-29,48,69,3,6,20
-14,-19,11,-64,-46,-10,-9,-76
-2,20,-2,94,51,-5,-10,0
5,1,16,-48,-17,12,12,13
23,22,16,-6,0,-6,-2,19
15,-16,-7,-24,-30,21,21,11
-26,-17,-15,4,9,3,1,1
0,-26,0,-10,-9,-4,-4,3
-16,46,28,63,-20,-9,-10,-7
-3,-16,-21,-128,12,10,10,2
9,0,18,64,7,-2,2,34
12,21,9,21,38,2,1,-7
-7,-20,-34,19,-9,23,-13,-36
-13,6,-7,-60,-13,-7,4,-17
-2,-29,-2,-7,-5,1,10,26
4,24,21,-102,-54,-6,1,-5
21,31,44,127,44,5,-9,-11
-16,-63,-23,-35,42,-13,-19,-15
-16,7,-6,93,27,-4,-14,-17
-7,-12,7,-17,-4,2,-6,-4
-6,-8,-10,-24,-11,2,2,11
13,15,-14,-39,-16,1,6,15
8,7,49,103,-35,0,15,37
9,-26,5,-74,3,15,6,-5
8,38,-33,96,78,5,-20,-50
-26,-72,-70,-57,-52,-17,-13,-7
-38,-17,-28,-15,0,8,7,-1
-1,-5,20,-15,-9,-2,4,5
19,41,19,12,-4,2,-1,9
5,-15,-12,18,1,11,7,17
5,-2,-15,-8,-8,0,12,3
29,65,32,11,-8,-7,-11,1
-14,-30,5,13,-23,18,33,35
11,-5,28,-92,-10,-9,-1,12
-17,-12,-20,102,46,18,-14,-56
-12,-14,-51,-52,-6,-8,-10,-24
-6,-28,-7,-23,-23,-7,-2,-2
1,17,4,-19,-22,-11,-5,6
3,8,17,-33,-25,-5,-2,8
4,7,-3,23,18,9,6,16
21,33,-2,23,18,-2,2,43
-17,-49,27,-128,-82,-5,0,-37
-7,-17,-1,127,75,13,-9,-30
1,32,-27,9,18,-5,-16,-13
-28,-22,-28,-76,-12,-14,-6,4
-1,-7,-8,-5,-5,1,1,0
7,10,1,-14,-11,2,3,4
11,26,53,-102,-81,-7,1,0
-9,-24,-33,47,50,3,-1,-4
1,5,1,19,38,-2,-2,2
0,3,-1,71,33,8,5,24
-10,-18,2,-4,0,-1,-11,-36
-7,-13,-13,-25,-19,-10,-11,-29
4,0,-12,0,-1,3,1,1
5,17,26,27,20,5,-4,9
-25,-55,39,10,1,7,1,0
7,-27,-21,-18,-13,-10,4,29
4,12,-5,7,8,10,-3,25
2,6,1,-30,-10,-9,-1,-47
-4,-17,0,31,3,-6,-2,-12
0,-10,3,6,-5,-1,-5,3
2,25,11,6,2,-8,-5,3
-2,1,-6,-12,14,3,2,1
-2,-12,6,-1,-41,-18,-22,17
8,-6,-7,5,21,13,19,16
9,12,9,-8,-11,0,13,21
9,38,-6,-37,27,9,2,-15
-6,-6,6,8,-13,9,-11,-50
-1,-34,6,-67,-35,-15,-23,-19
-12,-16,-41,31,12,-5,-11,-1
-27,15,15,-34,-28,-8,10,8
11,-1,-8,21,8,0,6,6
1,-7,-52,-11,-5,-9,-5,-1
-16,-53,15,-6,-106,-69,-47,-25
-10,2,-10,79,113,42,24,11
4,14,42,-22,15,7,4,10
3,11,-9,19,3,-13,-7,4
-9,-26,-75,-31,-11,-9,-5,-25
-5,-2,32,5,-8,-8,-8,-9
6,8,-5,-5,-6,0,-4,-8
-1,-3,-4,-7,-10,-7,-2,-2
-3,-7,11,-1,-17,-26,-9,26
-5,-10,-1,-39,-11,4,9,-2
-6,-34,-1,4,-17,22,11,-12
10,18,-21,47,46,22,5,0
1,-16,-8,-7,-1,-3,-1,9
-4,-14,21,-4,-11,-11,-5,0
-5,14,-3,-16,-11,-9,-1,-5
-2,-9,-17,-12,-10,-13,-5,3
11,9,14,1,7,15,9,8
14,18,5,7,10,11,8,6
-19,-23,-26,-29,-27,-11,-3,-12
-31,-24,10,-8,-5,3,4,-4
9,10,16,6,2,1,0,1
-1,7,35,6,-10,-17,-13,-6
4,11,43,9,5,0,-3,-4
2,-1,-75,-7,-2,-6,-1,-1
2,-6,-37,-13,-6,-1,1,1
-12,-31,-22,-20,-16,-19,-14,11
-21,-65,-3,-41,-30,-3,-2,-12
-7,-21,4,31,-27,2,4,-28
-6,18,10,-31,31,-1,-2,1
3,-2,8,18,12,1,1,9
-1,40,-13,-4,-6,-6,-2,-4
-9,-34,53,-5,-11,-9,-9,-18
2,1,-20,-19,-10,-9,-7,-2
-10,6,35,-34,-15,-6,-4,5
20,16,-14,34,-31,-1,8,25
-16,-25,-98,86,52,8,1,-2
17,15,4,-16,23,3,-8,-63
11,-1,61,9,7,3,0,9
-12,1,18,-20,-16,-2,3,5
4,-5,-38,-10,-5,-1,-4,3
-3,-12,-23,-14,-9,-4,-2,5
-1,11,29,3,-2,-2,-4,-7
8,19,18,10,4,3,17,5
14,27,-3,-22,-15,-8,-6,13
4,-13,-14,-3,-3,-8,-29,-5
-15,-4,5,0,-6,0,0,6
-3,11,3,3,-2,-1,0,-10
0,2,-3,-4,-1,-2,-1,-11
-6,-16,-12,-1,-1,-5,1,-8
6,-2,-1,7,6,1,4,6
1,1,-3,-3,-2,0,-2,-2
4,1,-5,-3,-1,3,-8,9
3,10,0,-4,-1,3,12,9
-15,-6,-7,-28,-7,-3,17,52
2,-28,-10,14,2,-5,-9,-25
18,8,25,3,0,-6,-19,-85
-1,17,-15,-6,0,-1,-11,-6
-3,-22,-8,-23,-23,-10,1,46
3,7,-5,21,-11,-2,11,20
-2,-11,-3,65,44,14,-3,-74
-5,36,-1,-31,9,5,-8,8
-23,-7,33,-92,-43,-23,-15,-4
-8,-20,-17,101,-26,-14,-4,6
9,9,-24,-56,53,17,12,22
25,1,-16,-43,-19,5,14,20
-15,-27,-13,-12,-10,-8,-5,-1
4,31,15,-10,-8,-2,-5,-23
11,11,-2,-5,-8,2,-4,11
9,-4,13,-95,-49,-11,13,10
-19,8,5,127,16,-1,2,18
6,-6,-24,34,46,9,-1,-29
4,-14,-11,-66,-2,-4,-11,-28
-2,-2,-6,-21,-13,-17,-15,0
5,20,9,-14,-10,4,7,24
-2,-15,-17,-44,-30,-1,7,8
11,3,6,39,9,-4,0,24
-3,3,19,52,-20,-15,-13,-1
-6,-28,-16,-58,27,-1,-9,-80
-33,-29,-20,28,14,-1,-5,-5
-7,10,-5,-3,-8,-7,-9,-8
4,1,36,-91,-55,0,3,10
0,-7,-10,64,36,3,4,4
8,0,21,98,4,0,4,9
5,-4,-45,-53,27,8,5,9
12,25,-10,-23,-12,-6,8,7
12,9,3,-15,-15,-5,-12,-10
-18,4,10,-2,-14,-13,-5,-22
7,-7,3,-73,-9,-5,9,6
-7,-36,10,40,-29,-8,-10,-3
-1,-10,-29,-54,35,0,-4,6
0,6,-1,72,7,5,3,10
3,-3,28,-31,-15,1,-1,8
-5,6,22,92,11,-2,1,-13
-5,0,-56,-44,8,2,-2,-20
17,-2,-9,-43,-9,1,7,32
-2,16,30,-10,-28,0,5,28
-2,8,-19,23,36,-14,-26,-38
2,-33,1,-40,-22,5,-2,-27
-5,-7,0,1,-9,-10,-2,-5
-34,-42,-24,-9,-14,-3,2,-2
7,18,16,-67,-23,-3,2,23
-6,8,0,68,6,-1,-3,-9
