Channel_1,Channel_2,Channel_3,Channel_4,Channel_5,Channel_6,Channel_7,Channel_8
4,14,-3,7,-3,-6,-1,8
-8,-5,-57,-58,2,-3,-3,-122
-22,-3,2,30,-5,-15,-38,-128
-4,6,7,-38,-15,-4,-9,-33
2,-3,6,31,12,7,3,-7
5,-4,-20,16,42,8,7,51
10,4,-3,-44,3,14,19,18
-9,-3,-8,39,-7,-6,-9,-59
-16,-9,14,-23,-15,-7,-8,-59
-1,6,-14,0,1,-6,-13,-65
-13,-7,48,19,-11,-11,-15,-69
3,3,-30,-34,-13,-5,-16,-7
13,9,-10,-2,-9,1,3,68
29,-1,-6,28,-10,1,31,127
10,-3,57,49,15,2,16,91
-51,-4,-72,-5,-5,-10,-42,-128
-16,2,-39,-31,-2,-3,-11,-47
8,-1,4,5,7,4,9,34
0,-10,56,6,-2,0,2,-29
34,-1,6,-18,-12,5,37,127
-10,2,-2,-6,2,2,-14,-80
3,5,3,-7,-4,1,18,21
5,-4,4,-5,-5,-10,-20,28
13,-1,-5,-10,-4,1,-2,103
42,-6,-15,-11,2,10,26,127
5,-11,-10,9,-5,1,85,111
10,-3,-80,-20,-5,-6,-2,55
16,-6,-1,-58,-8,-3,13,82
30,-4,-25,21,-6,1,36,127
10,-9,2,-7,-14,-10,20,85
-19,7,-4,-31,-8,-2,-48,-128
-18,-5,-12,40,29,4,-22,-78
-4,-5,25,-11,2,5,4,8
5,4,59,48,-18,-10,5,32
-51,0,-9,20,-3,-19,-86,-128
-43,3,8,-10,10,-8,-61,-128
-5,6,-32,-9,-1,5,9,21
-11,-23,10,-10,-11,3,20,3
30,-12,0,-3,-6,-1,31,127
-27,-10,-51,-11,-12,-20,-35,-128
-11,11,7,5,7,4,-32,67
2,10,27,5,4,-5,37,7
-20,-7,-46,-39,2,7,-10,-98
-11,0,49,63,15,-6,-26,-15
-15,4,-12,-6,-12,-8,-27,-128
13,2,-10,8,9,0,9,-9
11,-4,3,-12,-10,-7,16,123
-31,-9,16,-15,-11,0,-6,-128
-6,-1,-6,-17,-8,-6,-33,-128
38,1,9,4,-1,0,14,125
-25,-7,-11,-33,-8,-7,1,-91
1,9,-25,25,6,13,-11,-16
17,-6,59,13,-5,-3,20,127
-42,-2,-4,-1,2,-5,-54,-128
-13,3,-24,36,8,8,18,50
6,0,11,-11,-1,0,-3,90
6,-1,-75,-13,-1,-4,-10,39
6,-7,4,6,-6,2,18,56
21,1,2,-25,-4,4,63,127
-8,-3,-14,-21,-4,-6,-39,-128
23,7,-8,28,1,9,10,127
-3,2,5,8,4,-7,-34,39
15,6,-32,-46,4,4,15,5
-46,-8,62,60,1,-6,-17,-128
2,-1,-4,14,-6,0,1,15
16,-5,-26,-28,7,-1,22,127
10,0,-2,-20,-12,-7,10,46
-6,3,19,-13,-10,-7,-11,-16
-13,-4,-33,12,0,2,-8,-128
-22,-2,17,-7,6,4,-38,-79
6,3,16,10,7,6,6,61
8,-7,-59,-44,-13,2,25,58
2,-3,14,15,-7,-1,3,23
18,1,7,-24,-9,3,26,56
32,3,22,-17,-19,-4,54,127
-31,-10,-66,56,2,-10,-53,-128
-19,2,4,35,2,-9,-34,-33
17,-7,-28,-36,-11,7,31,127
21,-15,-8,31,11,-5,46,127
-25,5,-16,1,9,-7,-69,-128
-34,4,0,-21,1,3,-26,-128
27,9,-40,-49,-2,9,38,112
-22,-12,43,37,-9,-12,-35,-128
-12,-2,-9,-13,-7,-11,-3,-34
-14,-6,47,-12,-5,1,21,8
4,6,4,-4,0,2,-1,-30
14,-5,-79,-37,-5,5,11,43
8,3,4,6,3,-2,5,-24
1,-4,14,4,-3,-7,-20,12
-13,-6,89,9,-6,-4,-19,-66
27,6,3,19,8,4,18,127
4,-6,-89,-58,0,-2,31,-28
-28,-2,-59,-21,0,1,-39,-128
-6,-1,29,-25,-9,-4,-11,-2
11,-5,-28,32,-7,-6,34,127
-30,-10,20,-23,-13,-13,-47,-128
27,7,7,43,15,9,8,86
38,0,-9,3,14,0,43,127
-35,-2,18,-4,-4,-4,-39,-128
-28,9,18,-13,18,13,-53,-86
-10,-2,-25,5,-1,1,-2,-3
11,-2,0,3,-9,0,19,65
21,-3,-7,-9,-14,-7,37,127
3,-7,20,-7,-8,-4,1,-81
31,8,-12,-40,-9,1,15,127
-25,-15,3,1,-15,-9,-12,-61
-3,5,-6,52,16,6,-11,-13
21,1,11,3,15,10,23,127
-6,-3,-20,-6,-4,-2,-1,14
-37,-11,3,-10,-3,-8,-27,-128
-6,0,-20,-5,7,12,-1,-30
5,0,21,11,-7,-8,19,30
14,-4,-29,-51,-8,1,-6,103
37,-4,-56,-5,-8,4,46,127
-4,-4,54,33,-1,-11,-14,20
-52,4,-57,-25,-4,-14,-71,-128
-35,1,99,23,7,6,-33,-109
-1,-6,-24,-3,-12,2,19,47
7,-6,-48,21,22,3,15,58
9,-1,11,-15,4,5,14,40
13,0,-26,-13,0,6,8,25
65,8,-16,-21,-4,18,79,127
7,-1,-10,28,-16,-20,18,-128
-90,-12,-4,-19,17,-4,-103,-128
-11,-2,31,22,0,0,-10,52
7,-3,-15,0,-3,-4,9,88
11,3,-5,-30,-2,3,13,66
20,0,-40,-13,2,8,31,127
20,4,15,1,3,4,51,-26
15,-5,16,12,-11,-8,-5,33
-46,4,-16,-56,-14,-9,-40,-128
-41,4,5,46,9,1,-42,-128
-9,-9,12,39,5,0,-16,6
5,-3,0,-23,-6,-3,16,44
18,-2,-7,-14,-2,5,28,126
62,2,-18,-28,-10,7,72,127
5,-7,19,-9,-10,-11,1,-128
-63,1,-37,9,-2,4,-78,-128
-25,0,72,54,25,5,-17,15
5,-15,-92,-41,-7,1,10,72
14,-3,12,-22,-6,-13,18,55
10,3,27,5,-9,-7,1,23
8,-2,-4,-51,-10,-1,-12,3
6,1,-34,10,-3,2,21,-5
4,-4,48,4,2,7,-9,9
5,-1,-81,-29,-6,0,18,23
-28,-2,76,45,7,-8,-30,-128
-4,4,47,-6,-1,-2,1,-8
-3,-9,-31,-10,-4,-6,-10,-50
67,7,-31,-10,-6,8,83,127
-22,-8,-6,-15,-10,-13,-58,-128
-23,8,27,21,6,6,-30,127
-35,4,15,5,4,2,-17,-102
-9,-6,-5,-10,0,-1,-9,11
11,-5,-9,-20,-10,3,17,61
40,-1,-9,-2,-3,-1,69,127
22,1,-18,-6,3,2,22,95
-26,2,10,-33,-11,-6,-58,-128
-24,-3,2,90,12,-2,-43,-62
1,9,-4,-12,12,0,-12,11
1,-19,-68,-4,-10,-8,7,27
6,-5,-11,-35,-7,-4,13,32
18,3,-7,1,-16,-4,19,126
-14,-3,-22,-9,15,-3,-12,-85
-7,7,9,-19,-1,7,-5,-42
23,-1,24,9,11,3,31,127
38,-3,20,14,-1,4,57,78
-42,-10,-12,-1,-17,-14,-64,-128
-44,-2,10,0,-5,-6,-64,-128
-20,3,39,12,3,3,-10,-17
9,-5,-6,13,0,0,20,72
14,-1,-8,-29,6,6,18,88
11,0,-14,-25,-6,2,4,41
38,0,-26,-13,8,5,43,127
-16,-3,64,53,4,-10,-13,-128
-35,-14,-54,56,-2,-10,-56,-44
0,-2,7,17,-5,1,9,119
28,2,-4,-12,-1,-3,48,127
20,1,-15,-22,5,15,13,-94
11,16,3,-5,0,-9,-37,127
-68,-10,13,-5,-9,-15,-73,-128
-22,-8,-58,-23,0,5,-2,-12
13,1,52,30,2,4,20,127
38,3,14,-7,-4,4,83,127
-10,-15,-29,-12,-11,-19,-8,-128
-26,8,0,6,1,-13,-77,-128
-8,1,28,1,-2,-2,-13,0
6,5,25,7,-1,1,6,34
5,-6,-58,-1,4,3,8,29
4,-4,9,-8,-4,-3,18,35
21,3,9,19,-2,1,-1,96
8,-3,-10,-54,-14,-7,-5,-4
-38,-4,0,20,-4,-10,-31,-128
-20,1,-52,-66,-7,4,-15,-128
-7,-3,67,69,8,-8,-1,25
6,0,2,0,5,3,5,31
6,2,15,-32,7,2,5,19
8,-3,-76,-8,17,8,11,12
11,0,-44,-33,-5,1,10,43
-9,-7,103,60,-6,-14,-3,-23
-5,-4,15,-2,-11,-4,5,35
27,1,-26,-13,3,8,40,127
-15,-6,-27,-23,-4,-5,-3,-128
-17,2,-13,-47,-5,4,-55,-102
-17,-3,-66,46,6,-13,-29,47
-11,-2,32,-37,-5,3,-9,-20
37,3,33,51,-2,2,18,127
47,-3,21,20,1,2,96,127
-101,-12,-2,-6,-5,-14,-66,-128
-36,9,4,0,10,6,-60,-48
8,0,-20,-6,-1,-1,-47,99
17,-4,-23,-8,-5,-10,62,127
32,-5,38,-15,-6,0,36,126
67,-1,13,11,-12,2,107,127
-56,1,33,-18,-5,-17,-96,-128
-40,10,20,6,6,1,-81,-50
1,3,-18,17,6,6,6,81
5,-8,-8,-7,0,1,20,88
13,-5,-37,0,9,6,20,56
11,3,41,-61,-6,3,17,-1
14,5,-35,55,6,4,14,41
2,-9,-21,11,8,-4,-2,-6
-24,-11,73,31,8,-2,-25,-128
12,5,4,-13,-4,4,9,102
29,3,-40,-14,-12,0,38,64
-1,-2,29,0,-2,-9,-21,-128
-31,6,-16,-32,-4,-2,-49,-128
-37,-3,0,-16,12,7,-27,-95
-13,5,-10,28,-2,2,-5,-111
6,-23,-128,-61,-4,-1,14,29
-1,-6,127,28,-14,-14,-13,23
10,3,-3,8,-1,3,17,22
25,7,-36,-15,-3,12,40,127
61,11,-21,-20,-5,9,76,127
-76,-16,-64,16,2,-22,-59,-128
-37,4,6,4,6,-16,-128,-81
0,-7,-15,-26,2,2,9,101
1,-12,5,21,-5,-11,20,88
6,-4,43,10,-4,9,47,63
5,-1,2,-4,-7,-2,8,26
5,-1,-10,-7,-2,0,-9,-2
6,1,-38,-31,-1,3,14,-1
39,3,23,21,0,3,61,127
16,0,-33,-1,-9,-12,-17,-128
-38,-6,-9,-17,3,-2,-35,-91
-42,-1,63,10,-2,-1,-43,-13
1,-3,-12,31,3,2,-10,116
11,1,-7,4,9,4,7,40
-15,-6,-9,19,-2,-3,-6,-97
3,2,-9,1,-9,-11,5,19
5,-4,7,8,-6,-4,11,19
7,-4,11,-16,4,-1,6,14
28,0,-70,-54,5,8,32,127
-14,4,30,9,2,7,-11,-128
-30,-8,6,34,-1,-2,-18,-109
-4,-4,-15,3,-7,1,-2,-6
12,2,-5,-8,1,6,12,53
13,0,-12,-49,-7,-5,16,94
-19,-5,-6,-4,-10,-11,-5,-48
-33,0,-1,12,3,-1,-50,-128
0,-1,-52,48,9,2,3,39
2,-4,22,6,-1,-2,17,62
-5,-3,71,4,-11,-7,-8,-60
-1,-9,-38,-15,-2,-7,-5,-27
32,1,21,0,2,4,51,127
5,5,-4,-23,2,6,2,-128
-2,-8,-16,-29,-9,-1,-7,127
-52,-3,-15,-11,-9,-15,-54,-128
-31,-3,-23,-1,0,-12,-53,-128
-14,-6,89,70,4,-9,-12,15
11,-4,-1,-12,-3,0,22,63
19,-4,-4,-6,1,8,33,87
8,-4,-19,-21,-6,1,20,91
-6,5,-24,-14,-2,1,-13,-94
9,2,-35,-67,3,6,4,-8
-2,2,40,83,10,-3,-6,2
-4,-13,-15,-4,-5,-6,6,2
10,0,10,-10,-1,5,15,105
16,4,-10,-12,2,-2,6,32
-12,4,-7,-47,-8,-1,-6,-96
2,4,-32,49,17,2,-13,-6
-25,-7,-19,-5,-2,-7,-25,-124
-10,2,84,25,-7,-6,-12,-9
2,-6,-33,2,-5,-4,7,39
5,-2,-13,-27,-11,-2,8,34
9,-5,-10,-12,-5,1,9,26
2,-3,-23,-24,10,4,18,31
-6,-1,-3,14,4,3,-11,20
-2,8,53,-6,2,0,-10,-17
5,3,-43,-17,-1,2,2,24
11,-19,60,32,-15,-16,18,127
-3,-3,22,-9,-2,-7,-6,-128
-19,-8,3,-12,-1,-1,-1,-128
19,0,-9,-6,7,15,39,117
-51,-11,0,-10,-9,-10,-34,-128
-40,1,11,4,1,-12,-94,-72
-4,-1,-40,-26,-4,3,-4,54
5,-7,1,26,-9,2,27,94
14,-6,16,-19,-8,-5,25,98
7,-5,2,15,-7,-4,0,44
9,4,5,-23,3,5,7,60
2,-5,-39,-17,-3,-6,-5,-82
-4,-1,15,3,-10,-5,-17,-56
6,-4,33,20,-12,-3,11,22
-4,-8,-13,23,2,-3,-5,-47
0,-1,-3,-35,11,1,-1,12
-17,0,7,-23,-6,-6,-20,-128
18,-4,-26,-9,-9,2,30,118
-8,5,-6,-31,-5,-6,-4,-5
-19,4,-60,-33,14,11,-12,-128
-4,-9,127,94,-8,-21,-7,118
4,-8,-13,-43,-21,-7,13,-10
8,3,-4,-10,0,8,4,-13
17,2,-17,105,21,9,29,127
-9,-11,-67,-48,-7,-10,-24,-128
3,5,3,-55,-11,-5,-28,-19
-21,-3,28,35,-6,-7,-2,-113
-2,2,10,13,-1,3,-25,-5
3,0,51,1,3,7,-14,18
4,-10,-15,4,0,-7,55,46
5,-3,4,-5,-7,-9,8,119
13,-7,3,16,-4,-5,53,127
-14,-6,-29,-31,-12,-6,-36,-128
-58,4,1,5,-8,-2,-51,-128
-11,-2,17,14,21,5,-25,61
6,5,-2,-3,5,4,19,37
0,-4,-15,-8,-6,-6,-4,36
9,-4,-25,-23,-1,4,6,-1
6,-9,14,1,-15,-11,15,127
-30,2,-7,1,-7,-7,-54,-128
-10,-3,-11,5,5,-1,-11,-33
3,-3,4,-5,-1,-1,-2,0
5,-3,-15,-34,-2,1,16,32
1,-3,24,-14,-14,-5,2,40
-8,-3,-3,44,4,-1,-20,-79
11,1,9,10,6,0,16,83
9,0,2,-12,-4,-2,34,20
-7,-6,-16,3,1,-4,-24,-104
-22,7,14,-30,-10,1,-48,-127
1,-1,-12,45,2,4,16,101
6,3,11,-8,14,6,-2,-85
-5,-1,-44,-14,-1,-2,-18,-46
-11,-9,-6,-4,-11,-4,-1,-4
4,-5,13,-5,-6,-8,7,32
5,-2,11,-12,-8,-3,8,63
27,5,-15,-23,-9,5,39,127
-25,-7,-9,20,-3,-12,-38,-128
-7,-2,37,17,-3,-6,-27,-93
-17,3,18,26,22,12,-23,-19
2,2,1,-10,-2,-5,-7,24
-11,-4,-24,-8,0,4,2,-128
1,-7,-15,-11,-5,0,9,7
9,2,9,-12,-2,1,6,58
10,0,-66,-42,-17,-11,21,27
-9,-12,-29,40,0,-8,-21,49
12,-6,-2,1,8,0,6,123
-14,1,10,6,2,3,-15,-110
24,2,-39,-19,-2,8,22,127
10,-5,-19,12,2,1,32,-50
-65,-5,20,-8,6,-8,-76,-128
-21,5,7,7,3,-4,-46,-79
6,0,3,3,-4,-9,15,59
13,-4,3,-3,5,8,20,116
14,-3,-1,-2,-2,-1,21,89
5,-3,3,-11,-7,-4,-13,-3
-13,-1,6,10,-3,0,-2,-61
-2,1,-12,3,-1,-3,1,4
1,-3,12,-20,-16,-4,5,35
15,1,13,48,6,2,7,24
-2,-2,1,38,0,2,12,4
-21,-7,-22,-54,-2,-13,-17,-128
-22,-2,-15,-41,8,-6,-38,-31
18,2,2,25,14,5,12,66
-4,-1,-39,-11,5,-1,7,-25
-15,3,-14,0,2,3,-15,-91
-10,-8,74,24,-16,-11,-4,29
11,-1,-19,-16,-17,-4,24,67
7,-4,-16,-23,-11,-5,-3,53
-21,-5,-27,24,5,-2,-33,-128
0,1,-3,9,9,0,0,7
5,-1,-37,-28,-1,2,6,9
5,3,22,38,-1,1,10,60
8,-2,36,8,-8,-5,17,61
26,-4,-23,-12,-4,1,29,84
-30,-8,-9,-27,-6,-9,-45,-128
-24,4,13,-10,0,-4,-49,-60
0,4,-10,11,5,7,13,5
3,-3,6,5,-8,-8,24,94
8,1,-11,-7,1,5,2,-41
1,-2,-22,-47,-4,0,-19,-35
-4,-2,20,30,1,-8,-1,-4
16,-2,7,3,11,2,21,76
-6,-4,-10,-8,-3,-2,-15,-109
-11,0,-9,-5,-4,-2,-12,-57
10,0,0,-6,-3,6,8,3
-14,-6,-6,-3,-7,-6,-28,-47
-23,-5,-18,-28,2,-3,-26,-85
-10,-2,-6,-10,-15,-8,-14,-20
1,-2,5,-26,-11,2,3,19
6,-5,-5,47,-4,-7,6,30
19,-1,-7,12,24,9,40,127
19,3,-7,-13,-7,-2,16,96
-11,4,4,15,6,-7,-40,-128
-25,4,-3,-40,-12,-4,-26,-75
45,3,15,-7,-10,5,42,127
-11,-2,-11,-20,-3,-4,-4,-4
-31,-5,8,63,2,0,-28,-81
1,0,3,57,17,10,16,43
4,-8,-21,-27,-1,-18,-5,26
11,-3,-23,-5,-8,-2,12,127
6,5,6,-14,-2,4,16,-47
18,3,8,-1,0,4,15,127
11,4,17,-6,-6,2,9,24
7,-15,-32,1,-8,-1,11,-8
-50,-12,22,-6,-6,-14,-43,-105
-25,-2,5,6,1,-5,-38,-128
-13,-4,-43,-24,3,3,-13,-38
-1,-1,21,-6,-3,-2,1,40
18,1,-4,-4,-2,2,14,62
39,-2,23,33,-3,2,45,127
-38,-10,-1,-1,-6,-9,-7,-128
-16,2,13,-9,1,6,-18,-91
-12,-4,-21,15,0,-5,-34,-21
4,-7,-23,-22,1,1,5,39
13,1,-30,-22,8,4,11,64
2,-7,-19,-9,-7,-2,5,6
-9,0,48,40,-6,-2,-8,-61
9,-1,33,17,-13,-15,9,76
12,-2,-13,-12,4,3,2,8
-13,3,-6,-19,3,5,-6,-83
1,5,-22,-8,4,1,-16,107
31,-2,6,16,8,1,35,127
-44,-3,3,16,1,-1,-37,-128
-7,9,31,-20,0,-1,-23,11
4,-5,-12,8,-7,1,20,77
9,-3,-23,-7,-4,-2,8,63
2,-3,-13,-11,-6,-8,0,42
9,2,-16,-13,-4,5,7,35
18,2,18,-17,-3,3,13,32
-14,-4,8,5,-4,-5,-2,-36
-15,2,-20,11,-3,-6,-23,-77
17,-3,-11,-31,-7,6,22,77
-9,3,26,6,-5,-2,-45,-128
-17,-6,24,5,-2,-6,-7,-68
2,-2,-14,10,10,4,13,51
10,3,2,3,3,1,17,15
15,-11,-21,-10,-5,-1,15,41
-16,0,-13,-37,-16,-19,-49,-128
-25,0,33,67,2,-3,-23,-51
-2,0,-1,-11,13,5,7,11
5,-4,-48,-4,6,3,13,43
6,-1,35,8,0,2,10,32
0,-3,42,1,-7,0,3,14
-2,0,-6,-8,-3,0,4,8
5,1,-17,-10,-2,2,2,0
21,0,-4,-13,-7,0,28,127
38,-4,-15,-18,-13,-8,67,127
6,-2,-14,-21,-10,-2,-30,-128
-44,9,6,40,10,2,-61,-128
-78,-12,35,42,25,-15,-94,-128
-20,-2,6,-4,4,1,-19,-3
12,-2,-8,-14,-9,-1,22,127
17,-4,-12,-13,-4,-1,23,117
14,-3,-11,-10,-9,-1,19,75
12,-3,-8,-9,-4,0,17,34
3,0,-2,-5,-7,-7,3,1
2,-1,-2,-7,-6,-8,-4,-6
-2,-2,-1,2,-1,1,-3,-20
-2,0,1,2,7,5,-1,-23
0,-1,2,2,2,8,-3,-21
-4,-2,0,-7,2,1,1,-22
0,0,-3,-21,-5,-2,-1,-21
1,5,13,-38,-11,3,2,-14
12,-8,-38,61,0,-2,14,71
1,2,59,29,17,-13,1,92
3,-6,-34,-14,-8,-8,18,24
-20,-4,-40,-50,-2,2,-29,-128
-19,-3,112,23,-7,-4,-33,-94
-18,5,47,14,-11,-7,-69,-125
0,6,-32,-13,-1,7,6,0
9,-4,-25,-14,-3,3,23,76
9,0,-22,-12,-3,2,19,87
2,-3,-7,-6,-4,-2,12,-20
3,-4,-8,-4,-5,-6,6,8
0,-5,-2,1,-1,-1,5,17
3,-1,9,4,1,3,3,9
-2,1,-4,0,-1,2,1,3
1,3,-1,-10,-4,-2,0,-6
0,1,-2,-12,-10,-5,-7,-7
-1,0,1,3,-8,0,2,-6
1,1,-5,7,19,4,5,-2
-7,-5,-4,-3,-3,-11,-6,-10
-4,-2,9,0,1,1,-15,-8
-1,0,-1,-19,-5,2,4,-7
0,-3,-29,-19,-9,-12,25,8
0,-4,11,-7,-7,-12,2,42
0,2,-23,-23,-2,-1,-5,-27
12,7,24,9,1,3,12,107
4,1,44,15,-2,-3,11,3
-4,-8,-15,9,-3,-7,-9,-1
19,-5,-53,-15,-1,0,-8,127
-27,-7,65,4,-2,0,15,-128
-53,-3,31,-3,0,1,-52,-128
4,4,-35,3,5,0,-29,12
9,0,3,-3,0,-6,14,93
7,-5,-4,-8,-7,-5,13,70
3,-1,1,-5,-5,-1,9,21
-2,-3,-5,-31,-4,-6,3,4
4,-1,4,36,0,-3,7,11
-4,-6,-8,-7,3,3,-4,-50
10,1,-6,-4,-6,-2,5,28
32,-4,-18,-60,-16,-1,32,127
-3,0,4,58,-12,6,42,-128
-66,-6,-13,41,44,2,-88,-128
-27,-4,24,5,1,-17,-55,-8
-3,-3,19,0,-11,-9,-8,60
10,-4,-39,-26,-8,-1,33,102
17,0,-13,-14,-9,-2,9,90
15,-6,-27,-9,-8,8,4,9
-18,-6,-8,-22,0,-2,4,-30
-14,4,-53,-9,2,1,-31,-128
-14,-11,68,37,-5,-6,-13,-50
1,-6,4,-32,-9,-3,4,-22
7,-3,-11,-12,6,3,12,13
7,3,-4,32,7,1,10,7
5,-3,-6,1,-2,-5,3,1
0,-2,-2,-5,-4,-6,1,-6
-2,2,0,-8,-7,-2,-2,-9
4,-3,2,-6,-2,1,10,45
0,-2,3,-2,0,0,13,4
5,-2,-4,-6,-2,-1,-6,-2
11,-3,-2,-6,0,0,9,11
-28,-7,-54,-21,2,-2,-30,-128
-5,7,48,29,-1,-7,-34,20
-14,-1,-8,3,-3,-7,-15,-15
-7,-4,0,0,-8,-1,15,1
10,-1,10,-24,-5,0,17,42
50,5,-27,-5,2,5,62,127
-24,-5,14,14,2,-4,-16,-128
-33,-7,35,-9,1,-8,-51,-103
-3,2,-11,-32,-9,-1,-15,71
6,3,6,46,6,2,1,78
3,-6,-38,4,16,1,19,56
0,4,30,22,-1,-4,14,36
15,-1,3,1,-11,-1,15,33
4,-2,-7,-28,-11,-9,5,70
1,2,19,-3,-1,3,7,81
-21,-5,-35,-15,4,2,4,-128
-40,-11,-1,11,-1,-8,-36,-128
-1,0,6,-14,-8,-9,-28,0
11,-3,-2,24,9,2,9,43
23,-1,-24,-18,-5,2,23,127
2,-2,42,11,-9,-5,17,-58
-14,0,-17,-8,-2,-2,-32,-59
0,3,24,3,1,2,-11,7
1,-11,8,-59,-11,-4,-14,27
20,0,54,80,8,-3,44,127
-21,-4,-42,-4,-10,-5,-12,-128
-1,1,5,-24,1,4,31,73
22,11,-21,3,6,8,28,29
-15,-7,33,9,-4,-9,-60,-128
-16,-1,1,-4,-2,-6,-25,-55
4,0,-6,-10,-1,-4,3,55
2,-3,-8,-9,-9,-7,-8,4
7,-4,-2,3,4,2,6,16
3,-2,-2,-5,6,4,13,6
8,3,-12,-20,-4,7,14,2
7,2,-18,2,3,2,12,32
-11,-19,10,-23,-15,-20,-9,-18
30,9,-6,15,5,1,34,127
-23,-4,60,11,-12,-16,-55,-128
-14,10,-27,-9,12,13,-30,2
-11,2,-16,-13,0,6,-2,45
7,-1,-10,2,4,1,11,85
12,-1,-7,-7,-1,-1,15,68
7,0,-4,-6,-2,-1,10,38
0,-2,-2,-4,-2,-4,5,9
1,0,0,-5,-6,-7,1,-8
-2,-4,5,3,1,3,-1,-18
0,-1,0,-10,8,14,-4,-29
-5,-2,-2,-9,1,-4,-9,-29
1,2,5,25,-2,4,44,2
-1,-1,5,4,2,-7,-7,-20
-3,-8,-5,17,-5,-11,-12,-22
33,4,4,-10,1,8,53,127
0,4,-30,-29,0,0,8,-109
-13,-9,-49,-7,-16,-3,-38,-64
-11,2,47,13,-4,-10,-24,127
-36,6,17,-2,9,-1,-34,-128
-16,-13,1,-4,4,5,-20,6
9,-1,-6,3,4,3,12,80
10,-1,-8,-2,-2,-1,18,85
8,-2,-11,-7,-4,-3,14,49
5,0,-7,0,0,-3,8,27
1,-3,-5,-14,-4,-4,5,2
0,-2,-5,-1,-6,-3,3,-8
-1,1,-1,3,0,-2,-11,-21
-3,-1,1,-18,-1,4,-4,-25
-1,-1,3,0,1,6,6,-20
3,0,-6,18,6,2,-2,23
-4,-7,-13,-14,-7,-17,-8,-40
9,6,-1,-8,2,3,15,49
-3,0,-20,14,1,-5,0,-36
12,0,11,12,-12,-7,-8,86
2,0,38,16,-5,-1,18,105
-52,-12,-25,-33,-10,-4,-49,-128
-5,5,0,-67,-8,2,-36,17
12,0,33,66,-8,-2,15,119
-1,-4,-28,-1,3,0,4,11
2,-4,-54,-6,7,6,18,24
1,0,8,-11,5,1,1,13
-3,-4,-22,-15,-6,-3,0,5
5,-2,5,-9,-9,-2,5,7
1,1,0,-2,-5,-4,-1,-12
-3,3,-1,0,-4,-3,-1,-24
-3,-3,-6,-3,1,-1,-1,-11
5,-1,-5,-1,-2,0,8,59
0,-2,0,-1,-1,-2,6,-54
-9,-2,-6,0,8,-4,-25,-64
7,2,-23,-8,0,6,7,81
3,-3,39,8,-7,0,48,8
-11,6,22,7,-1,-6,-78,-128
-24,-3,20,-9,1,-4,-11,-4
0,-2,-28,12,0,-8,6,34
8,-6,-38,-8,-4,-4,8,48
6,-4,-9,-7,-5,-1,7,30
22,-2,-1,-14,-2,4,23,84
7,-1,1,-54,-9,-3,10,36
-39,-5,12,31,7,-6,-42,-128
-3,2,-22,15,21,17,9,-20
0,-6,8,17,4,2,1,2
-2,-5,44,13,-12,-7,-1,9
-3,-5,-39,-25,-8,-6,-4,-55
11,2,-13,-24,-2,-5,5,104
30,-1,-18,-14,-8,3,23,76
-2,20,-7,-19,-4,-6,-9,-70
-27,-3,-7,11,-7,1,-27,-128
-19,-34,27,-1,-5,-1,-32,-26
-5,-7,-85,-28,14,5,4,30
5,-6,2,51,16,3,16,42
-2,-2,125,12,-12,-7,5,38
7,2,-58,-19,-7,-3,2,22
6,9,-17,-13,-5,-2,-15,10
24,5,-15,-7,0,4,48,127
5,1,-13,-10,-3,-3,1,-63
-27,-1,-13,-11,-7,-7,-35,-120
-4,8,25,12,3,3,-39,9
2,-2,-20,36,-2,1,4,35
17,-3,-29,-10,-1,7,23,72
9,-6,-5,1,-8,-3,25,78
-6,4,10,-3,3,3,-17,-63
-10,-1,-34,-38,-2,3,10,-23
-28,-8,50,44,0,-12,-36,-128
-14,-6,-9,-2,-4,-5,-17,-123
-6,-1,18,-5,-3,-5,-4,-14
7,-1,-31,-7,-2,-4,4,30
8,-4,-3,-5,1,-1,8,45
-3,1,-11,-5,-3,1,-7,-85
1,0,-6,-22,-5,-1,2,-12
1,0,2,18,7,2,-2,7
2,-1,-1,4,7,5,1,-9
6,-1,0,-7,1,2,15,27
-12,-4,10,8,-3,-7,13,-1
-1,-5,-47,-18,-7,-2,-28,-41
4,5,7,-22,-12,-2,0,-7
31,-2,-20,-23,-11,-2,26,127
-14,-6,-5,22,5,-2,-13,-68
-26,2,76,63,12,3,-21,-101
-9,0,-6,-4,3,4,-6,16
3,-2,-14,-23,-6,2,10,24
6,-4,-15,-18,-3,1,8,36
6,-2,-17,-13,-3,-1,3,22
5,0,-8,-9,-4,3,6,12
-1,-3,0,-4,-9,-14,-3,1
-2,-4,-4,-9,-14,-14,-4,-8
-6,-5,-4,-17,-8,-1,-4,-10
14,0,-17,23,11,12,33,127
5,-5,-5,27,8,2,17,7
-5,-16,8,-38,-9,-6,-14,-26
-14,10,46,15,10,1,-64,-102
-26,2,-31,-6,-6,-5,-17,-128
-2,2,-17,-7,1,-2,5,17
10,-11,-24,6,-3,0,7,48
3,-10,36,10,-16,-15,-4,35
7,3,-9,-6,1,6,12,21
2,1,-8,-7,2,6,23,15
1,2,-6,-6,0,1,-23,10
3,-1,-3,-4,-4,4,-5,0
-1,-4,-3,1,7,-7,-14,-11
-2,-4,-8,-1,-3,-4,-2,-7
-2,-2,0,3,-2,-1,4,-4
-3,-6,0,-1,-2,-2,-3,-7
0,-1,7,-3,-2,1,5,26
27,-2,-7,-5,0,0,33,127
-8,0,-16,7,8,8,-24,-128
-25,-1,15,-11,4,3,-33,-70
-26,0,-15,-6,-5,-6,-33,-82
-4,0,23,12,-5,0,12,12
5,-2,10,9,-12,-10,9,49
10,-2,-8,-23,-4,-5,11,46
1,-2,4,0,4,1,2,21
1,0,-11,3,2,7,36,39
10,-1,8,-10,1,-2,-28,6
-12,-1,-4,6,0,-7,-14,-66
-8,-5,-12,-11,-3,-3,-6,-44
-4,-1,20,-41,-6,-4,-8,3
-1,-2,18,30,-3,-2,-2,18
-4,-4,-40,-4,-1,-1,19,-23
4,0,-11,-3,3,-2,15,65
5,1,7,-7,4,1,-4,-46
9,-1,3,-7,-4,-2,-12,-48
-15,1,10,-5,-2,1,-4,-33
-11,-3,-6,2,-2,1,-10,-21
0,2,27,8,5,3,-3,3
1,4,-38,-25,-3,-3,-6,-3
-6,-7,99,38,-7,-11,-13,12
7,-3,3,-1,-4,-6,9,31
3,-8,-67,-11,-2,-3,7,34
-23,-8,-13,-2,-2,5,-9,-100
3,4,-5,-6,6,5,-6,-12
9,-1,3,-6,0,-2,3,30
-3,3,7,5,3,-1,-6,10
-3,-1,2,-2,-2,-4,7,-11
4,-2,-15,-5,0,0,-3,16
4,-4,-3,-2,-5,0,26,70
19,-3,-24,-1,-1,2,30,69
-25,3,38,4,-2,-6,-71,-128
-20,1,10,5,-5,-10,-38,-25
5,-2,5,5,-3,2,48,79
7,-2,-18,-3,0,-1,5,37
3,0,-14,-1,5,0,11,57
6,-6,-24,-17,-4,-5,-19,-9
-17,3,19,17,3,-1,-7,-72
-3,0,2,4,4,4,12,-10
1,-4,13,-1,-3,0,20,21
-4,-6,-2,-4,-5,-11,-22,-34
9,-3,-39,-15,-1,-3,-12,-5
-2,2,19,13,0,-5,-3,-4
0,-2,7,-24,-6,-7,-7,-6
-1,-5,0,23,3,6,11,-3
-2,-5,-9,-8,0,7,4,-6
-1,-1,-2,-24,2,-4,-5,-7
1,2,22,-7,-7,-2,5,41
3,1,-23,3,-1,-2,7,25
-10,-4,50,29,-2,-7,-25,-79
5,-1,-22,-28,-2,-4,-10,4
-6,-4,25,6,-3,0,-2,-2
1,0,-25,-10,-7,-3,1,-13
-15,-3,37,6,-6,-6,-20,-115
-5,-1,-2,-16,1,2,-10,-15
7,1,-6,0,-1,2,9,51
0,-5,-23,-9,-7,-1,13,44
5,-3,-8,-4,-1,-4,-5,24
1,3,24,2,1,2,-4,9
-9,-3,21,15,-3,2,-5,-12
-1,-3,-30,-9,-8,-2,6,-30
15,3,13,1,-1,3,41,92
-8,-3,-23,-7,3,2,9,-62
-2,-5,5,8,6,0,4,3
-10,-3,9,-1,-2,-2,-16,-72
-3,1,1,1,-2,2,-11,-79
2,1,-3,-2,-3,-4,-2,18
6,-3,0,-3,-5,-3,0,46
3,-2,-3,-1,1,0,9,40
3,0,-1,-4,-1,-3,-3,-6
-4,-4,-5,-5,0,-1,2,-1
-4,-7,-17,-13,-4,-5,3,9
-6,4,-1,10,4,4,-6,-9
-2,0,27,6,-1,1,-4,-6
-2,-2,4,1,-1,2,-2,1
4,2,-7,0,3,4,5,-7
6,0,22,-8,-4,-1,13,123
-12,-2,0,11,-6,-9,-18,-111
-17,-1,-3,-12,-1,-5,-33,-105
7,2,-14,-10,0,2,4,54
3,-5,-16,-10,-1,1,7,43
1,-6,6,29,4,3,8,-6
-5,0,3,7,-1,-1,-3,-74
-4,-1,13,-9,3,2,-13,-31
7,-1,-11,-11,-7,-9,5,68
-10,-9,-12,-5,-2,-6,-10,-37
-11,-2,12,-6,-3,-4,-5,-40
-4,-5,-8,-12,-5,-4,3,15
3,0,1,-6,-8,-9,2,43
4,1,-10,-7,-4,-4,-10,0
-2,-4,11,6,3,3,12,7
-12,-5,20,5,-8,0,3,-74
-4,-4,29,16,1,0,-6,-8
5,5,-19,-8,-3,2,13,103
-16,-4,3,-7,-2,2,33,-128
-7,-3,-15,-4,-1,-2,-45,0
-1,4,-15,-3,-3,-2,-15,-40
4,6,-7,-6,-6,-6,-5,14
1,-7,6,-1,-4,-4,6,23
-4,-5,-30,-3,-3,-10,-6,13
2,-2,-1,-6,0,1,1,42
5,6,23,12,5,5,35,24
-6,-3,9,-5,-2,-2,-2,-49
-2,0,-9,-1,-4,-6,-3,13
-8,-2,-7,-15,-6,-7,-4,-22
-1,0,0,0,-2,-4,-11,7
-3,1,1,2,-1,-1,-12,-70
-3,0,14,-1,0,1,-9,-15
0,1,-33,-8,2,1,0,16
3,1,9,1,0,3,-3,15
3,-5,0,-14,-10,-8,7,20
1,-10,-42,9,0,-4,8,114
-1,-3,20,1,-6,-8,14,-38
-22,-9,1,13,2,-6,-21,-102
-7,5,9,-15,0,-4,-53,-73
5,0,-6,-1,4,2,7,25
9,0,-6,-4,6,2,9,42
2,-1,-5,-5,-2,0,7,14
-3,-1,-2,-6,-8,-8,-2,-21
-1,-3,-5,0,-3,0,5,2
9,3,-15,3,3,0,-8,9
-4,-1,4,14,5,0,29,29
-12,-4,12,4,-5,-2,12,-73
-7,-7,-18,-11,-2,-2,-6,1
3,-2,-1,-4,1,1,-2,0
2,-1,-6,-1,-3,7,6,1
9,3,0,-1,2,3,23,127
-9,-4,-10,-9,-7,-4,-14,-101
1,-2,-10,-8,-10,-21,-46,-54
-11,0,5,1,0,3,19,-19
-2,1,5,7,4,4,11,22
-4,-2,-2,3,8,0,-13,39
3,-6,-7,-19,-11,-1,20,14
-6,-3,-3,1,-3,-5,-6,-98
1,3,-1,2,-3,-4,-5,-8
5,-2,-3,-8,-6,-5,-3,40
20,0,-6,-7,-4,4,36,127
-17,-4,-5,-4,3,7,-13,-100
-13,4,0,-4,5,-2,-40,-98
1,1,-22,4,4,2,1,3
-5,-6,49,18,-10,-10,-5,22
0,-2,1,-11,-6,-8,3,23
5,-3,-44,-20,-8,-8,4,26
19,5,22,-6,-5,-5,11,127
-16,-5,-1,-36,-11,-4,-6,-122
-17,-1,-5,35,4,3,-12,-65
4,4,-4,18,17,6,6,5
-2,-4,58,34,8,0,0,25
-1,-1,-18,-21,-3,1,2,-10
-1,-3,-6,3,6,0,3,7
4,1,-6,-11,0,-3,1,26
-6,0,-8,-4,-9,-6,-13,-68
-3,-2,-7,-11,-10,-7,10,51
4,0,-5,-3,-9,-5,-1,-38
-8,-2,5,-7,1,-3,-35,-41
0,1,-6,7,9,8,29,-14
3,-2,14,12,2,4,20,23
-11,-12,-32,-21,-10,-8,-8,-5
-4,-1,-7,-2,-5,-3,7,-37
2,4,17,9,-1,1,-6,-15
12,-2,-1,-6,-6,-4,1,18
-14,-1,-5,-5,-10,-10,-16,-44
-11,-2,0,-8,-11,-7,-11,-28
2,-1,7,7,-1,3,2,25
10,2,-38,-3,17,11,14,4
9,1,-3,2,3,-2,-2,-26
8,-5,-13,-4,-7,-7,-24,120
-34,-15,20,2,-14,-6,0,-128
-10,-3,5,8,-3,-5,-22,-63
0,-1,0,-10,-5,-8,-18,0
3,0,-10,-7,-2,4,19,47
0,0,-7,-1,-2,-7,-3,-20
4,-2,-2,-4,-4,2,0,16
2,1,-5,-7,-1,3,8,13
0,-3,-44,-22,-5,1,7,9
1,-3,37,-20,-3,-4,-2,20
-8,-4,40,67,15,-4,-40,-64
7,-5,3,-9,1,5,19,-18
15,4,-9,2,-5,5,18,73
-22,-1,-7,-6,-10,-11,-24,-16
-12,-3,-2,-7,-7,-5,-17,-60
3,4,8,-9,-8,-6,-8,34
9,-6,-7,-23,-15,-2,10,36
-2,-2,-15,-2,6,-1,0,24
-6,-5,37,26,7,3,-13,-45
-1,0,-35,-6,-2,1,-9,-67
1,-3,22,1,-3,1,5,-24
-7,2,-17,-14,-1,1,-7,-1
4,-2,-9,-15,-4,2,22,97
-8,-3,30,11,-6,-8,-7,-26
-11,-5,-10,3,-5,-7,-31,-83
8,3,15,-13,-1,5,31,59
9,-4,-7,-9,7,-2,27,81
0,-2,6,16,-8,-14,5,47
-21,-2,-8,5,-5,-11,-36,-128
-8,-7,9,-3,-1,5,-10,18
8,1,-6,-5,0,1,7,53
1,0,4,-3,0,0,-2,30
1,-1,-7,-3,5,7,9,-3
-5,2,6,4,1,-1,-2,-5
7,-1,-25,-6,-2,0,2,39
3,-2,8,6,1,-1,4,36
-2,-4,23,16,-5,-3,12,11
-3,1,-9,-3,-4,-9,-13,-67
-19,-6,-14,-9,-11,-8,-41,-82
-2,-1,4,-3,-2,-1,-10,-16
3,-5,-9,-6,-6,0,9,8
16,-2,-9,-13,3,11,32,127
-4,1,-7,-15,2,3,6,-58
-9,-1,25,52,17,1,-21,-71
-3,5,39,13,15,8,-7,-12
3,-4,-56,-7,-6,-5,2,67
-2,-10,-9,-9,-12,-11,1,-3
2,-2,21,-5,-9,-5,-7,37
-13,-2,-4,-9,-2,-1,-8,-86
4,3,9,5,5,5,4,31
5,-2,0,-4,-4,0,10,70
-5,-1,-4,-1,0,0,-5,-59
-3,0,1,1,-2,-11,-9,-9
1,-1,5,-10,-6,-9,-8,15
13,-1,-9,6,-8,2,21,70
-4,-2,3,3,8,6,16,27
-3,-6,30,10,6,9,-8,-61
1,4,-34,5,3,-1,-6,-30
-7,-4,-13,-8,-4,-3,-24,-74
-13,-6,22,-12,-7,-12,-23,-38
0,-4,22,-10,-11,-4,43,35
5,-2,-16,-4,-4,-10,7,27
2,0,-2,5,0,2,12,15
-1,2,-11,-7,-4,0,-9,-1
-2,0,-1,-15,-5,0,8,7
3,3,-17,-16,3,5,3,8
13,3,13,51,1,0,2,45
-14,-12,22,6,-3,-11,-10,-52
-10,-3,-9,-17,4,2,-13,-14
-8,3,-5,-4,0,-1,-15,-68
0,-4,-5,-10,-5,-4,4,9
13,1,-4,-7,-6,1,16,91
-5,-5,0,2,-5,-3,7,-11
-14,4,3,1,2,-6,-33,-128
-2,3,-12,0,5,7,-31,-2
18,1,20,0,-3,-4,22,84
0,-9,-27,11,0,-4,11,52
-14,-3,22,-1,-7,-6,-4,-59
-19,4,5,-6,2,-2,-17,-98
-1,-1,0,0,0,0,4,14
9,1,-5,-4,0,3,8,77
6,3,0,-7,-2,2,3,0
12,-6,-6,6,-9,-7,-19,77
-26,-6,-3,-5,-3,-1,-10,-128
-23,0,-6,-1,-2,2,1,-77
3,0,-12,-1,2,4,17,26
5,-3,3,11,1,1,-21,33
7,-2,2,-6,1,-1,22,34
-1,-1,9,7,-8,-9,-1,20
1,-1,2,-23,-4,-2,3,9
3,2,4,28,12,4,3,-1
-2,3,-18,-1,3,5,0,-2
-5,-16,-70,11,-19,-10,-6,-11
1,0,14,-17,2,0,-3,-4
-9,-1,-4,8,7,-3,-1,-10
3,2,-4,-15,1,0,-1,-7
-2,3,-5,-6,-5,1,1,0
5,3,4,3,-3,0,0,-7
-1,-2,2,-3,-2,-5,-2,2
12,0,-12,3,-2,-1,18,127
15,1,-1,11,0,3,27,81
-39,-14,35,-15,-1,-6,-37,-128
-11,6,-5,-1,2,-9,-47,-79
-11,-2,-11,-7,-13,-12,-9,-13
4,0,-5,-5,-7,3,15,44
2,-7,-7,6,17,11,15,36
5,0,-5,-4,6,9,15,24
5,-2,4,-3,1,-5,-6,9
1,-5,11,12,-4,-2,27,-6
14,-6,-30,-26,-9,-7,9,90
1,-4,-9,-3,-11,-4,26,96
-31,-8,-14,-11,-15,-14,-40,-128
-12,5,-5,-1,3,1,-45,-28
-1,0,83,13,-4,-4,6,33
0,-5,-14,-3,-8,-3,16,47
2,0,-5,1,9,7,11,-29
3,1,-7,2,1,3,3,10
6,-1,-9,-7,0,-4,-2,26
4,-1,-5,-5,0,3,17,81
-10,-5,-13,-7,-10,-12,-5,-96
-8,-2,-1,-6,-2,-4,-22,-62
-6,-2,22,5,5,-2,-7,-18
3,1,-31,13,0,3,6,11
4,0,2,-27,-13,-6,2,10
4,-2,3,16,-5,2,-9,1
-4,2,-16,-4,11,8,4,29
8,-2,-24,10,2,-7,26,23
-4,-3,45,37,4,-7,-23,26
-10,-13,-2,0,-7,-8,-16,-56
-6,7,-1,-42,-5,5,3,-25
2,-3,-24,-24,-10,-6,23,101
2,-6,-7,-2,-3,-4,4,-18
20,4,-6,-9,-11,-1,3,30
6,-4,-2,-2,3,4,11,57
-36,-13,-20,10,14,9,-31,-128
-35,3,31,18,5,-4,-44,-128
-3,0,16,5,6,-1,0,21
1,-4,6,18,-7,-5,11,56
7,-5,-20,-6,-8,-8,-5,52
15,0,-20,-28,-8,-1,27,127
12,-3,-29,-14,-6,5,19,21
-10,-1,19,-16,-8,-2,-28,-72
-1,1,-11,11,-4,1,-9,-21
15,5,25,7,14,10,29,104
-16,-7,17,-2,-4,-9,-1,-111
-21,-2,-11,7,0,4,-60,-128
-2,-4,-15,-5,-3,-4,7,12
0,0,-14,-9,3,-6,-1,4
8,4,-4,2,4,5,1,25
6,1,-7,-1,1,3,17,31
-10,-7,-24,-19,-1,-7,-11,-50
-7,-5,34,32,-8,-10,-9,-8
-2,-6,31,-12,-11,-9,-1,13
5,2,-30,-6,-5,1,3,-4
7,2,-22,-23,-6,3,15,22
16,-1,-20,7,11,8,9,66
-15,0,14,17,4,-3,-5,-80
-17,4,15,-4,3,1,-16,-115
-10,-6,34,11,-15,-14,-15,2
-3,0,23,18,-4,-4,-5,95
1,1,-19,-26,-2,-2,5,45
13,1,-33,-15,-16,-6,0,47
3,-2,-48,-3,13,5,3,28
-8,-1,18,0,9,7,14,-4
14,-6,59,14,-9,-2,32,67
-5,-6,-1,-8,-5,4,-12,-128
-23,-4,-51,-14,2,2,-19,-46
-2,-7,-37,-5,-8,-19,-41,40
19,-4,52,-1,-9,3,28,127
50,3,10,-23,-11,-1,55,127
-53,2,-12,13,6,-5,-56,-128
-47,5,-28,-20,11,-2,-64,-128
-6,2,-28,24,-1,4,3,51
13,-10,-5,-4,-8,0,31,118
9,-8,55,15,-11,-6,25,62
2,-2,0,-2,-1,-2,12,-2
11,2,-37,-14,-1,-3,4,25
6,4,-12,-15,4,4,-12,-78
26,3,-12,-24,-3,0,9,98
-15,-4,-3,54,-4,-11,-21,6
-35,-6,2,-9,4,3,-20,-128
-6,-1,-10,-16,0,-1,-4,-13
14,-1,-23,-6,-2,0,18,82
29,5,-14,-16,0,6,23,127
-32,-8,21,16,-6,-7,-4,-128
-6,5,3,-25,-9,-6,-6,-57
-20,0,27,44,9,-7,-39,-64
-1,-12,-24,6,8,0,4,31
-1,-1,9,-15,4,2,6,9
14,-2,-24,-4,0,2,19,95
10,0,-18,-24,-8,-1,5,39
-14,-1,-10,-33,-15,-7,-19,-112
23,9,111,39,-1,-2,12,121
8,9,39,56,6,-3,-3,-28
-19,-7,-18,-7,3,7,-23,-43
-12,6,-44,-25,6,-6,-28,-47
-8,-4,68,20,-6,-3,-3,-28
3,-3,15,-18,-2,0,12,4
18,-9,-86,28,5,7,35,127
40,-1,52,-30,-4,-1,47,127
-39,-8,38,17,-10,-19,-73,-128
-21,2,-36,-17,4,6,-4,-95
-22,3,-29,-14,5,1,-33,-68
22,-4,33,7,-1,2,24,127
48,-3,-22,-11,-7,-2,42,75
-24,-2,-16,-15,-1,-5,-27,-42
-9,9,-15,-17,12,13,-7,15
24,1,63,34,-3,-2,33,127
6,-1,-4,10,-2,0,-8,-60
-30,-1,-43,12,5,-4,-57,-128
-1,-2,7,-8,0,3,-3,36
5,-3,4,-24,-11,-7,5,57
11,-1,-26,-9,-2,4,10,87
4,1,2,-17,-14,-10,9,39
-2,-7,-74,-53,-12,-6,-15,-92
1,7,52,60,18,6,-9,-9
-4,-8,64,38,-2,-6,20,84
22,-4,8,6,11,8,-14,67
-26,-6,-38,-34,-10,-2,8,-85
-24,0,-9,-12,-3,-10,-24,-128
1,-2,-13,-48,-9,-3,-3,32
19,0,-21,-22,-14,-1,18,125
20,-8,35,81,10,0,33,127
-45,-10,-22,-5,-2,-6,-28,-128
-18,1,-24,-23,-10,-9,-19,-44
-21,-4,26,48,12,-2,-22,-128
-18,-9,-25,-16,6,2,-9,-82
-7,-7,-30,-15,-6,-3,8,-33
15,3,-32,-53,-1,2,20,28
26,-2,-2,11,-5,-2,30,127
-19,1,76,64,-11,-17,-58,-107
-7,5,-1,0,-1,-1,20,-28
-3,1,-21,-4,0,-5,1,-8
35,2,-27,-21,-4,6,45,127
-1,-4,-9,1,3,-1,5,-73
-27,-4,-20,-10,2,-4,-44,-110
26,5,5,-2,-5,-3,26,127
19,-5,-13,-39,-7,9,35,115
-36,-9,4,51,5,-14,-37,-47
-26,-1,-9,-11,6,-3,-70,-128
3,-6,43,26,-13,-8,8,127
18,5,-42,-24,5,7,50,127
-1,4,16,27,9,5,0,-18
-22,-6,-9,-24,-4,-2,-22,-65
-3,2,67,35,0,6,3,-3
8,-5,-15,-19,-6,1,6,18
3,-7,38,8,-5,-13,0,47
11,-6,-36,-22,5,3,22,28
4,2,-47,-21,5,10,-5,-37
25,6,30,-8,-4,-2,15,122
-17,-2,84,37,-14,-12,-20,-128
-14,2,-29,-5,-6,-1,-27,-85
7,5,2,-5,5,10,17,89
-19,-7,-21,-12,-6,-9,-31,-128
-10,-5,27,-3,-10,-3,-5,-35
8,-2,-10,-7,-1,0,10,50
33,4,-16,7,16,11,38,127
-11,-5,10,23,1,4,0,-128
-33,-4,21,33,2,-2,-38,-109
-9,-3,1,-16,-5,-11,-22,-48
3,-2,21,6,-10,-7,-4,32
17,-2,-33,-19,-6,1,32,91
-10,-3,-41,-42,-2,-1,9,-32
-4,5,27,26,14,9,8,-3
22,-6,14,-11,-8,0,-3,127
18,6,-23,-2,4,7,29,30
-32,-4,20,24,0,-19,-71,-128
-40,-5,3,-6,-1,-5,-35,-128
1,-7,-28,-3,-5,-3,9,58
6,0,-21,-11,-5,-5,7,81
11,0,-4,-7,-7,0,16,71
53,1,3,-14,-3,4,53,127
-31,-8,-17,-23,-3,-5,-48,-128
-38,7,41,32,7,-1,-46,-64
-8,-6,-52,-40,0,-2,-10,40
17,6,-33,28,-1,-2,0,113
34,-3,86,40,-6,-2,38,127
-22,5,14,0,-2,-3,-16,-128
-38,-4,-19,-11,-4,-3,-11,-128
-2,-2,-20,-29,-3,5,25,45
10,-2,-29,-15,1,1,10,51
1,-8,3,12,-7,-6,0,34
5,-3,-9,-1,9,2,-4,21
2,2,-6,2,6,0,-3,3
11,-4,-38,-41,-5,0,5,21
18,4,-3,-31,-13,-4,33,127
-28,-6,80,31,-22,-25,-32,-128
-39,-3,13,61,14,2,-52,-128
-4,3,-8,-13,4,-1,-12,10
5,-5,-34,-22,0,-1,13,45
2,-5,-49,-9,-4,-4,14,32
2,0,18,-6,-5,-2,13,15
2,-2,7,1,-1,-1,-20,1
10,0,1,-3,-2,-2,12,2
32,0,-11,-15,-4,2,51,127
25,0,-61,-43,-2,8,21,-128
-63,9,110,80,1,-16,-100,-128
-26,3,29,14,5,-5,-36,-76
9,-6,-68,-31,7,13,20,99
4,-7,54,11,-9,-7,13,85
5,-5,-40,-9,-3,-1,12,58
10,2,7,-12,2,-1,7,32
3,-1,-7,-3,1,2,6,0
0,2,-7,-6,-5,-6,-2,-15
1,-1,-5,-5,-8,-3,-6,-24
0,-4,-1,-12,0,4,-6,-22
2,3,1,1,13,18,20,-16
10,-3,1,18,7,-3,21,77
23,-5,-20,-11,-1,-9,17,127
-42,1,14,-15,0,-7,-55,-128
-5,9,-24,6,-3,-8,-21,-23
-26,-11,36,9,-17,-12,-19,-80
8,-4,-52,-24,-3,5,3,66
4,-6,2,5,-1,-2,1,14
-4,-5,8,-4,0,2,14,1
4,3,-1,-14,-2,-1,5,5
5,-2,4,-4,2,1,-1,0
0,0,-4,-2,-7,-3,1,-5
1,-2,-10,-6,-3,-4,1,-11
-1,-1,-5,-2,-2,-3,0,-11
-3,-2,-4,-1,-2,-6,-1,-11
1,-4,-4,-4,0,3,-13,-16
-2,2,5,-41,2,8,-5,-11
1,3,0,34,2,5,38,13
-4,-7,-7,16,5,-16,-10,-2
-3,-4,-5,-10,-2,-9,-2,-10
5,-5,-7,-7,-9,-10,1,32
18,6,9,-7,-3,1,2,105
8,-3,-40,-55,-6,1,13,-40
-30,3,19,51,-3,-9,-35,-128
-27,-4,72,3,-9,-14,-51,-128
6,-5,-26,-23,10,10,-5,17
5,1,30,1,2,5,-13,90
-10,-4,18,3,-7,-9,17,-33
0,-5,-13,-9,-6,-4,28,20
37,-1,-16,-1,-6,-6,28,127
-17,1,-48,-6,2,-3,-48,-128
-23,-3,45,9,4,0,-28,-40
6,4,34,14,5,0,-12,45
3,-3,11,2,-6,-1,4,44
4,-4,-40,-19,0,2,9,33
7,2,-24,-9,2,0,9,16
-2,8,52,15,-4,-7,-3,3
-6,-16,-7,-4,-5,-8,4,24
3,-2,20,8,1,-3,4,-35
10,-4,-16,-31,-9,-5,-4,78
-14,0,3,0,-3,-2,-15,-128
-9,0,1,22,4,0,18,-17
-13,4,4,32,10,1,-14,-53
6,-5,12,-18,1,4,23,42
6,-2,-17,-10,-2,5,5,21
1,-3,-9,-11,-8,-7,-11,-6
5,-2,14,-2,-7,1,-1,10
-1,-2,-12,-9,-1,-5,6,-6
1,-6,-19,-2,2,-2,1,3
-4,-1,6,-11,-5,-9,-3,48
1,-2,0,-1,0,-1,17,23
-8,-4,-2,2,-4,-4,-20,-120
-7,-4,-7,3,0,0,3,-29
-2,0,9,1,-2,-11,-21,-6
10,1,-4,0,2,4,20,75
4,-6,5,-11,-10,-5,5,38
-6,-1,0,-10,-2,-3,-4,-15
-21,0,-15,26,3,-7,-15,-98
-13,-6,-23,-9,-5,-4,-16,-77
-1,0,55,8,-11,-11,-8,1
-1,0,-11,-5,3,5,5,37
6,-7,8,-8,-2,4,14,30
4,-5,-26,-7,-1,-1,1,20
3,-1,-15,-4,2,-3,-1,15
11,-5,1,-3,0,3,26,118
6,-3,1,-23,-6,-4,0,-85
-19,4,-10,-1,-4,-2,-32,-65
-15,0,18,-35,-10,-8,-30,-49
-3,-9,-30,53,11,-1,1,-20
4,-3,7,16,12,8,2,30
5,-2,10,-8,-3,-1,5,28
2,-2,-5,-8,-5,1,2,16
3,-3,-17,-7,-1,-3,3,14
0,0,3,-16,-7,-6,-1,5
3,0,-18,-29,-8,-4,8,32
6,8,-7,24,6,-1,8,25
-16,-6,-3,-11,-3,-5,-24,-103
-8,-8,5,7,-6,-4,-22,5
18,-4,-4,9,-4,0,30,127
-10,-1,-4,-7,-1,-4,-6,-128
-29,2,-9,-2,3,0,-33,-12
-6,1,-10,-1,0,2,-7,-1
-3,-7,1,-9,-7,-7,4,5
7,-3,-12,-6,-1,-2,-1,26
8,2,-2,0,2,8,32,52
4,0,-2,10,5,1,3,20
-4,-6,7,8,0,-10,-26,-9
18,2,1,7,6,8,33,37
-5,-7,-27,-16,-7,-10,-12,-30
4,-3,-14,-14,-6,-10,-12,23
-16,3,23,-9,0,-2,-8,-86
-13,1,14,6,1,5,-17,-74
-1,-4,-12,1,1,2,2,1
5,4,-31,0,-4,-1,3,9
0,-4,37,23,-7,-3,-1,8
2,-1,4,-4,-4,3,3,8
1,0,-15,-14,-5,2,0,-4
11,1,8,-5,6,2,20,127
-9,-6,1,12,-2,-10,-3,-76
-10,0,-18,12,5,-9,-37,-128
0,1,-21,-5,1,8,-3,-13
4,7,13,7,1,2,0,63
4,-5,6,-19,-9,-1,-2,78
-12,-6,-3,-4,-5,-2,10,-47
0,2,-9,-5,-3,-1,-8,-12
0,2,17,29,-1,-3,-8,14
2,-1,5,14,7,-1,25,16
2,-3,-33,-32,-3,-5,-16,18
1,-3,7,8,-5,-2,-10,-8
18,-3,-29,-20,-6,6,26,127
-6,2,43,6,-7,-4,-15,-114
-12,2,-24,-9,6,-1,-13,-29
-6,-1,6,36,14,3,-16,23
-15,-3,3,15,-3,-3,-11,-79
7,-1,-11,-13,-2,-3,7,66
9,-3,-12,-13,-5,2,30,67
-3,0,-10,-10,-3,-3,-1,-3
0,4,3,-5,-2,-2,-16,-15
6,1,-25,-23,-3,-1,-2,1
10,0,41,33,4,8,8,91
14,0,12,0,-1,7,56,95
-29,0,1,-3,-4,-8,-36,-128
-14,-5,-17,-34,-1,-6,-33,-36
-2,-3,1,3,-8,-8,-6,-3
10,6,-1,28,6,8,39,75
-7,-5,-8,7,1,-8,-30,-48
0,3,-18,-25,-1,0,6,-5
2,-5,63,-39,-12,-9,-5,16
-1,-8,-21,17,-12,-8,-8,7
3,-5,-25,8,1,4,13,18
34,-3,-8,-32,-3,4,43,127
-1,0,29,3,-3,-1,-3,-37
-60,-9,-37,-28,0,-5,-44,-128
-11,-2,12,17,-3,-5,-13,28
-1,-10,26,21,-5,-8,-1,63
10,-2,-10,-9,-7,1,19,61
5,0,2,-4,1,0,0,11
11,-1,-37,-17,-1,-1,5,28
-1,-5,-2,9,-2,0,4,-28
0,2,-7,-34,-5,-4,4,-11
-6,-1,30,13,-6,-8,-10,14
-11,-5,-10,25,-2,0,5,9
14,-2,13,7,-5,-1,20,112
31,-6,-13,-9,-11,-5,29,46
-41,6,-6,13,20,-4,-80,-128
-26,7,-6,-16,9,2,-32,20
0,-6,9,-25,-7,-10,6,96
10,3,-37,-22,-11,-5,23,89
14,-3,73,58,-16,-12,-7,43
5,-5,-41,2,12,-2,0,67
-26,-4,13,-30,-6,-8,-39,-128
1,5,-39,-2,4,8,11,24
12,-4,15,-5,-4,-1,13,109
14,-4,2,-2,2,2,-9,-16
-6,1,-10,0,5,11,5,-93
-14,0,-10,-7,-5,1,-12,-88
-1,3,-4,10,-2,-4,-2,17
14,0,-48,-48,-2,7,21,62
36,3,-5,37,0,0,46,127
-13,-5,94,16,-14,-16,-44,-128
-30,-2,-25,-7,6,-4,-51,-75
9,-3,-23,-6,2,9,22,67
7,-3,-20,0,-1,-5,20,74
-8,-1,-29,-35,-4,3,-2,-41
2,-2,33,7,1,2,5,18
6,-4,26,-26,4,2,11,27
13,3,-4,43,1,-5,8,36
-9,-7,42,42,-12,-14,-31,-114
-21,-2,-16,-35,1,-1,-32,-113
-2,1,-42,-20,0,3,6,38
5,7,11,1,2,4,13,64
44,0,-33,-6,3,3,41,127
-16,-4,18,-13,-1,-5,-7,-128
-47,4,-38,32,4,1,-55,-128
-6,-1,24,-8,-2,-1,-3,51
5,1,32,57,2,-4,4,83
9,-1,25,-4,-7,-2,19,124
11,0,-43,-34,2,13,13,-31
16,-1,-3,-38,5,7,12,39
4,1,-34,25,-3,-8,12,88
-27,-5,-42,14,-8,-15,-41,-128
-3,3,21,-5,-6,-5,-17,-28
7,2,-14,-19,0,4,17,9
2,-7,-35,-12,3,2,7,4
11,-7,25,3,3,2,-11,96
23,2,-2,-2,-1,3,32,70
4,9,1,3,0,-3,-7,-57
-31,0,15,-12,6,1,-21,-128
4,-3,-52,7,-1,4,-5,60
-25,-10,3,-3,-1,1,-19,-128
-5,-4,-5,-2,-8,-7,13,-1
14,3,22,-27,-7,-5,25,65
22,5,-69,-11,2,4,30,116
2,-1,37,21,-2,2,19,-21
-10,-2,-4,20,8,-3,-51,-128
-19,-3,35,13,-7,-6,-39,-70
3,1,-19,-34,6,1,0,-53
-11,4,-14,5,4,5,17,-89
-5,0,30,6,1,1,8,31
13,2,23,2,4,2,10,104
18,-1,-40,-14,-7,-5,-9,61
4,-10,-17,-21,-4,0,1,-63
-4,4,45,28,3,1,4,7
-13,1,8,2,-6,-7,5,6
-8,-1,-9,-2,6,0,-7,-37
-8,2,-16,-6,-2,2,-26,-89
5,2,7,-39,-16,-9,-5,17
2,-10,29,11,-13,-4,8,37
6,0,1,98,32,8,10,34
9,-1,-51,-30,6,2,14,67
21,2,-2,7,-7,3,44,118
-27,-10,23,-27,-7,-11,-39,-128
-16,10,-20,20,2,-7,-64,-121
-6,-3,31,17,0,-5,-9,12
2,-1,-23,-28,-3,2,7,40
6,-5,-26,-15,-5,-1,12,81
13,-2,31,-3,4,8,25,52
2,1,-8,-7,-3,-1,-4,18
14,-2,-30,-18,-3,-4,17,26
-1,1,-3,42,-5,-10,-17,-26
-46,-6,30,-13,-19,-13,-41,-128
-6,-5,-59,-21,1,4,2,36
12,-1,2,-8,14,3,16,62
10,4,9,7,-3,1,-12,15
-2,-4,-36,-2,-3,-1,13,-3
1,1,49,14,-3,0,-9,16
4,-7,-12,-30,-7,-3,-5,7
0,3,11,25,-1,-2,40,105
-9,4,20,22,2,-4,-19,-71
-18,-2,-8,-17,-6,-4,-25,-128
1,2,-9,1,0,2,-4,4
3,-3,10,-10,-1,-6,1,22
18,1,-7,-4,1,3,43,127
12,-7,-25,-15,0,5,14,70
22,-6,-17,-1,-14,-13,-31,-104
-58,-2,1,1,-3,-5,-27,-128
-30,7,2,10,4,-1,-37,-116
4,-2,7,-23,-10,-3,19,86
7,-11,18,-2,-3,-5,18,87
10,-4,-14,3,3,6,13,65
14,5,-21,-30,7,5,9,49
43,-1,-4,23,-4,-2,53,127
-37,-11,34,37,-13,-17,-42,-128
-32,-3,-78,-25,-16,-12,-49,-128
-11,-3,18,-15,1,-3,-11,1
9,-2,-11,-21,2,3,4,54
10,-2,-4,-1,0,4,27,56
6,-3,-10,11,11,4,11,1
13,-1,3,-4,-4,0,24,74
19,-1,-4,8,-12,-3,2,127
-20,-4,-29,-62,0,4,-11,-128
-32,9,81,68,6,-8,-53,-105
0,-10,48,21,-5,-6,-1,56
1,-5,-11,-20,-9,-2,10,23
2,-5,-83,-30,-2,1,5,-3
-8,-1,28,-3,-6,-1,-3,-32
5,4,4,-21,-4,1,7,5
7,1,23,10,-2,-6,8,13
0,-2,6,12,-10,-8,3,39
22,-1,-46,-30,-9,1,31,98
-26,-2,-15,0,11,-2,-55,-128
-9,3,-22,0,15,8,-23,-11
-1,5,54,17,-2,-3,-12,20
2,-2,-52,-27,-8,-7,28,85
13,6,-7,15,-3,-1,0,42
13,3,-34,-11,4,10,37,55
14,-8,85,51,-6,2,68,127
0,-4,27,-13,-11,-9,-17,-58
-65,7,27,10,5,-9,-117,-128
-10,0,-60,-14,3,3,-21,49
6,-3,-8,-5,3,-1,13,96
13,-1,-31,-45,-7,-2,16,79
11,-7,20,19,-7,-6,7,42
11,-4,0,40,0,-4,8,56
11,2,-23,-5,16,6,11,-10
-10,1,60,25,3,4,2,-57
-9,-5,-24,9,1,-5,-5,-38
13,1,-4,-25,-6,6,9,63
37,-3,-33,10,2,3,51,127
-30,-8,-12,-30,2,0,-20,-128
-49,3,-52,-19,1,-8,-83,-128
-5,10,86,33,3,4,-21,8
-1,-9,35,21,-14,-7,11,58
11,2,-2,-11,3,-1,19,47
5,-1,-4,7,12,2,3,21
7,-1,-28,-11,2,5,2,-5
1,3,-3,-27,0,1,10,-11
4,0,-3,14,-7,-10,17,22
-6,-14,21,0,-9,-6,3,-33
-9,3,69,23,-2,-7,-36,-45
-5,4,-9,21,-2,-5,5,-63
2,0,4,-38,5,5,-16,-34
20,1,65,35,3,8,20,127
16,-3,-17,-30,0,3,49,20
-17,-4,-45,-40,-7,-4,-6,-127
-36,-3,-18,13,6,-3,-59,-128
-19,2,7,21,5,0,-41,-50
7,0,-2,-11,-5,0,9,66
11,-8,-19,-9,-6,-5,19,96
24,3,18,12,1,0,34,127
3,1,-30,-39,-6,-6,-18,-13
-24,-10,-10,3,-2,-3,-35,-128
-6,-3,-24,3,-10,-7,-3,-13
8,-3,-6,-9,-10,-1,3,89
6,4,8,-6,4,-7,2,-94
0,0,5,-9,1,2,1,-34
-3,5,-34,1,4,-1,-7,-18
-2,-3,10,22,1,6,18,2
3,2,7,7,3,-4,1,24
6,1,14,-20,-6,5,16,120
45,-1,-21,20,-1,2,23,121
-23,-5,-4,-8,-7,-8,-7,-36
-48,1,0,0,0,-2,-48,-128
-1,-1,-18,-17,-4,3,-1,47
9,3,-1,35,6,2,-7,71
5,-3,68,21,-1,-5,12,69
17,-1,-39,-46,-1,7,7,71
-7,-11,19,30,-9,-8,5,16
-16,-5,-63,-33,1,-7,-23,-118
4,-2,27,4,-7,-4,6,-34
-11,-5,30,14,3,-4,-3,-45
-5,-20,-48,-18,-10,-9,1,74
11,3,0,-12,-3,7,-25,-118
-4,3,-1,-17,2,2,17,31
7,1,4,15,3,5,25,86
-47,-7,1,7,7,1,-60,-128
-3,2,6,-10,-1,-2,-5,4
5,-6,-83,-21,-4,-5,5,121
-2,-3,39,-12,-8,2,-1,-89
4,-2,-19,5,6,-9,-12,15
20,4,-8,-10,-8,-2,42,127
5,4,79,37,-3,-3,-13,31
2,-12,-18,13,-11,-4,11,27
-5,5,-35,-21,1,6,18,111
-29,6,10,2,7,-6,-48,-128
-1,1,5,-16,1,4,38,41
6,-3,38,-2,-1,0,10,65
10,-4,-64,-5,-1,-5,-25,51
15,-3,6,3,-2,3,15,127
-7,-1,-3,7,5,1,-1,-110
-4,0,16,11,6,1,-1,-79
-3,4,9,36,1,-4,-7,-5
8,4,11,-9,1,5,17,32
2,0,-2,-14,-3,1,-2,15
-26,-8,-13,-5,-1,-11,-12,-121
-6,-4,-15,2,1,-3,0,4
8,-4,-10,-9,-4,4,27,49
7,-4,9,-1,0,-4,1,127
-4,4,6,23,-2,-8,5,-118
-15,-6,-9,-15,2,-3,-33,-37
-5,-3,-21,11,-9,-9,-3,45
-5,-2,-13,-3,3,4,1,-28
2,-6,-45,-19,-2,-1,5,29
7,-6,2,-6,1,2,4,82
13,0,36,3,2,2,21,30
-3,0,-20,-17,-1,3,17,-1
-21,-6,14,9,-6,-7,-11,-56
-7,0,-15,10,-2,-8,-22,-84
7,-3,3,-12,-7,5,7,42
3,-4,-18,-19,-4,-2,4,-4
1,0,23,11,-4,-11,0,4
2,1,19,8,-4,2,2,-78
-7,4,54,4,2,1,-27,2
-10,-4,-80,-17,1,-5,-25,-61
-3,-6,22,-4,-4,-1,9,12
3,0,55,18,-3,1,10,72
7,-5,-1,-1,1,0,2,-5
0,-1,-8,-9,1,-1,-6,-21
0,-3,-10,10,-1,-2,-1,6
-1,-1,-1,-2,-3,-4,-1,8
0,-2,-4,-2,-1,-1,-2,4
-1,-4,-3,-3,-4,-3,-1,2
-3,-1,0,-4,-3,-3,1,-2
0,2,1,-1,-4,-7,-16,-9
-3,-1,15,7,5,5,15,0
24,-2,-25,-10,3,8,48,127
9,-5,-48,-53,-14,-3,-13,-48
18,-1,63,55,10,8,41,127
-57,-9,38,20,-2,-12,-54,-128
-27,7,21,-3,0,-4,-53,-62
3,-1,-76,-14,-2,6,-19,51
4,-1,44,-3,-10,-3,4,80
5,-5,-6,-9,-6,-3,18,18
7,0,-13,6,-5,-3,14,53
9,-4,0,-3,-5,3,9,35
4,-2,-2,-5,0,2,6,11
5,-1,-3,-4,-4,-4,3,-4
3,-1,-3,-3,-6,-4,-2,-16
-1,0,-3,-2,-4,0,0,-17
1,0,1,0,5,4,0,-16
-2,-2,-4,2,2,0,-2,-21
-1,1,1,-25,-2,0,1,-17
-5,-3,-2,5,-10,-3,-25,-26
-1,1,4,15,1,5,0,-13
-3,-3,1,2,5,-2,25,3
-4,-2,-3,5,12,6,-5,-5
-4,-1,-5,2,2,-3,-10,-10
0,1,2,-5,-11,-11,17,26
5,4,7,-11,-9,-6,0,36
20,3,2,6,-3,2,28,118
3,4,-45,-20,4,4,7,-14
-28,-9,117,33,-10,-10,-56,-70
-11,-2,-56,-12,-10,-3,-10,-17
-21,-12,4,-26,-8,-9,-34,-128
1,-3,11,-12,-6,-4,-2,24
22,2,-29,-4,2,0,17,81
-1,4,102,24,-5,-5,7,64
2,2,7,34,-2,1,8,-15
1,2,-51,4,19,12,4,-5
-12,7,52,20,8,1,-11,-62
1,-14,-128,-74,-7,4,-4,18
8,0,76,43,-10,-7,18,18
-11,-11,29,3,-16,-16,-4,26
8,0,76,43,-10,-7,18,18
-11,-11,29,3,-16,-16,-4,26
2,5,5,-14,2,1,-27,-16
-11,-1,-20,-42,-8,-4,-1,-72
