Channel_1,Channel_2,Channel_3,Channel_4,Channel_5,Channel_6,Channel_7,Channel_8
-10,-17,15,-20,-23,-4,-11,-6
-102,-23,-45,31,-1,-3,-33,-77
-26,-13,0,1,-9,-8,-18,-26
18,10,15,-105,-11,-6,4,22
5,36,47,127,-64,5,33,44
37,-11,-22,-109,127,34,26,26
59,-15,-80,-83,-15,-5,-44,-79
-117,-36,57,-27,-26,-12,-17,-35
-16,-34,-7,-9,-16,-4,2,12
13,23,4,-3,-17,-4,4,21
12,24,20,5,-2,1,-14,8
19,-3,1,10,0,-11,13,0
59,28,-4,-14,-43,-10,9,22
-18,-2,-10,-42,18,-5,-17,-21
-1,-32,37,13,19,4,-17,5
-17,10,-20,25,-11,1,31,27
-3,-9,-8,-16,-8,-4,6,32
29,41,15,48,-54,-8,-26,-41
3,33,-8,-83,57,-1,-34,-80
-78,-67,4,-7,4,0,-8,-4
-6,-13,23,28,-5,-7,-35,-105
3,16,7,-39,-28,-6,14,23
-30,-54,-53,12,36,4,8,17
-26,1,29,39,12,1,10,11
13,7,-51,-47,-7,-7,-10,-10
34,-4,19,-71,-31,-16,-14,14
-9,-60,11,-41,-31,-8,11,23
2,7,11,-20,-27,-4,-6,-44
-17,28,25,-94,-43,-17,-15,-3
-13,-33,-14,127,19,4,7,33
-3,-15,-74,-46,8,5,12,44
26,22,33,-11,-8,0,-9,-54
-10,-18,-6,-31,-28,-1,-9,-19
-16,-2,-40,-24,32,-6,-5,6
-53,-50,13,-28,-23,-13,1,-51
-22,-4,19,-16,-12,12,6,0
16,45,9,-2,-37,10,27,37
17,15,-32,26,86,-5,-12,17
67,8,8,-17,-5,-11,-18,-8
-72,-18,3,-2,-12,-5,-19,-38
-6,16,36,7,-1,5,7,16
16,33,9,-61,-95,-20,13,42
94,-1,-19,-43,-21,-13,21,44
0,29,11,-128,-46,-8,0,5
-6,34,26,127,30,14,7,-5
14,22,75,-27,-6,-11,-16,-7
-71,-128,-120,44,26,-6,-17,-38
-45,-17,-41,-56,-6,-4,-9,-7
-44,-16,10,-81,-28,-19,-43,-70
-2,21,19,87,3,-8,-46,-66
-15,-13,-27,-30,-4,-4,0,37
11,29,-8,-6,-7,4,19,51
-12,22,45,-28,-32,-6,-9,-5
28,-8,-57,51,22,14,21,33
31,-2,32,6,8,4,16,38
-47,-13,-33,-50,0,-11,-47,-128
-5,50,80,-23,-58,-16,-11,3
19,5,-98,-33,97,27,19,29
44,-6,-55,-48,-11,4,-5,4
-76,-34,48,-27,-80,-21,-7,-5
-7,21,-18,127,127,31,11,12
25,-7,12,-30,0,0,13,25
49,10,12,-128,-88,-22,-6,19
-51,25,-18,127,62,7,-12,-48
-36,6,12,-70,28,7,9,-45
35,-6,-37,-34,-10,-2,3,27
27,25,-20,24,-22,-2,8,20
44,-58,-28,-111,-37,-2,6,3
-31,-8,27,38,5,-12,-5,-25
-16,15,8,-30,18,-1,-8,-16
-5,-2,-18,36,-1,-6,-33,-25
-10,18,-19,-9,-12,7,23,47
-1,-9,36,23,21,8,27,5
10,-49,-27,-24,-28,-24,-26,-41
14,13,4,-7,-44,-4,-6,19
-8,29,-11,18,76,13,7,-18
-10,-27,13,-11,7,1,-5,5
-20,13,0,1,-4,0,-7,-47
-6,23,51,-103,-32,-1,13,36
21,24,-10,127,12,5,6,17
46,17,-25,-100,-66,-18,15,0
47,-48,-56,65,127,9,-7,-19
-36,25,19,-31,-11,-4,-31,-62
-97,-66,-12,-29,-23,-1,-11,-10
2,6,21,-13,-19,0,-12,15
16,27,35,-1,-9,-4,13,21
27,19,-5,18,-9,-2,13,23
47,19,49,-29,-65,-6,12,17
18,52,-22,127,127,30,-9,-23
-23,-77,-47,-81,6,3,-12,-1
-12,-49,20,-32,-21,-8,-1,-2
13,33,-11,-18,-17,-7,-1,11
5,31,-1,-52,-60,-8,1,-10
-19,-28,-24,77,78,13,0,-1
32,6,19,-23,0,4,-2,28
-36,0,13,-13,-12,-7,7,47
25,-4,-33,-4,-10,-4,13,11
-15,-9,23,-30,-20,-6,-25,-81
-21,2,-47,37,20,19,-1,-47
14,5,7,-17,5,0,9,23
11,-34,7,18,-16,-24,-3,23
51,8,-29,-28,-33,-26,-21,8
13,30,-3,-6,42,9,4,-2
-23,13,22,50,-39,-3,-15,0
-29,-70,0,48,46,23,41,44
22,33,-2,-64,17,5,16,20
24,-16,0,-5,-21,-8,-6,-15
-13,-7,45,3,-27,-7,-14,-64
-61,31,-62,-53,-30,-9,-1,18
0,-16,18,100,52,8,5,3
32,-19,-87,-32,5,0,2,13
4,30,11,-5,-3,-7,-10,-22
-18,-34,7,-91,-31,3,-1,-5
116,53,57,127,43,8,7,36
-28,-26,15,-27,-3,4,-7,-26
-11,-20,-103,11,-3,-6,-1,-5
-8,-11,-24,-26,-8,-10,-20,-28
-11,7,33,-10,2,-6,-5,-29
-2,-3,11,5,-19,-5,0,10
-8,1,34,19,-3,11,-1,21
20,27,1,36,-37,5,18,69
71,48,-35,39,93,20,26,11
-1,-74,-1,-7,-11,-19,-48,-105
-102,-11,-2,-26,-22,-8,-21,-24
10,-7,9,-12,-14,0,5,21
18,12,-10,-7,-5,-1,8,22
51,-11,9,-19,-13,-8,8,40
20,29,11,51,-9,11,-1,-7
-49,4,-10,-13,26,14,5,10
48,-61,-25,-23,6,6,5,-21
5,46,37,25,4,-12,-29,-45
-10,-30,-6,36,-6,-9,-12,-1
-15,5,-31,0,-7,-10,-3,9
2,20,21,-19,-34,-8,8,6
2,38,49,-83,-13,12,16,27
14,6,-2,127,76,23,33,71
65,43,-61,-128,30,5,5,-5
-128,-128,-25,-42,-22,-11,-53,-128
-9,10,11,-15,-21,-5,-7,17
16,9,5,-22,-18,-4,7,20
-23,-9,28,-84,-20,-1,-4,31
16,4,45,47,-34,-9,24,51
-4,-2,-36,19,49,5,-8,-48
24,-17,-93,-53,4,-3,-21,-22
2,24,13,-23,-15,-10,-20,-7
19,-29,4,-12,-14,-8,-6,-17
-10,13,16,1,-7,0,3,13
-6,6,1,-42,-11,3,1,17
32,-6,26,-22,-22,-4,-3,28
13,-13,-4,117,17,-4,2,-13
-109,10,-5,-69,17,-4,1,-16
-42,-2,-12,-86,-60,-5,11,43
5,2,-40,126,80,22,17,32
31,-4,-29,-25,-1,-9,-42,-116
48,-56,27,-13,-21,-9,-11,1
-38,-47,16,-7,-13,-6,-6,-8
-12,36,22,1,-7,-1,8,14
0,6,14,-75,-32,-6,5,7
-4,6,24,52,23,0,-16,22
-15,30,4,-37,-6,4,15,0
25,-3,-54,101,34,4,-16,-28
75,12,66,34,-38,-7,-13,18
-9,28,2,-1,25,4,1,5
-74,-41,-46,-60,25,-1,-6,-12
0,-5,12,-54,-23,-9,-2,-20
-4,6,5,-55,-22,-7,-2,-4
-4,19,-16,127,22,7,6,15
33,-14,2,-5,15,6,-11,-7
-7,-22,18,4,-2,7,6,45
12,16,-4,-5,-6,5,46,49
-6,7,1,-104,-50,-23,-34,-67
9,7,30,68,13,-9,-14,-93
-54,27,23,22,11,4,10,26
-5,-44,-30,20,22,10,0,21
59,27,-44,-49,9,1,-8,-3
54,-34,2,-9,-20,-13,-13,-2
-48,-112,7,16,-19,-11,5,9
-3,31,21,2,2,3,-9,-18
-1,29,-2,-21,4,3,-17,-4
26,29,22,-65,1,6,19,15
-2,7,8,14,-2,-5,-1,-2
-5,-5,-43,60,14,3,-2,-2
-14,19,1,-5,16,13,23,86
2,27,11,-96,-14,7,72,52
127,7,-23,100,5,-11,-43,-113
-107,-57,2,-30,-15,-15,-54,-80
-83,-6,7,15,-6,-13,-21,-2
13,14,27,-12,-2,-2,3,24
17,-18,-34,-25,-12,-6,14,37
22,33,38,34,-62,-14,9,28
-16,15,-4,114,85,16,9,-16
-19,-50,-14,-69,7,-3,-10,-1
19,5,-1,-32,-20,-9,-16,-14
18,39,25,123,-20,-4,5,10
21,-8,-53,-70,25,13,13,16
-36,-50,-12,-85,-26,-4,-4,-7
-19,8,-6,100,-15,-12,-17,-19
26,8,33,25,19,4,-5,-2
13,22,18,-128,-10,9,9,47
52,45,15,25,-22,-8,9,27
-28,-59,-40,-111,-36,-10,-12,-101
-25,16,-18,127,45,7,2,7
6,-60,28,-12,-2,-7,-19,-11
-44,-22,24,13,0,-4,-21,-49
-41,-26,-47,-49,-12,-2,42,24
-25,11,35,127,-12,6,29,72
72,32,-79,-128,26,1,2,-31
75,-26,35,-29,-12,-12,-49,-78
-65,-14,-1,-9,-9,2,-13,11
-9,12,8,1,-1,8,14,22
-3,8,-4,2,1,2,-3,20
-8,0,-2,-41,-12,1,23,38
9,21,21,35,-33,4,26,10
9,47,7,46,64,-8,-29,-25
1,-67,2,-33,-6,-13,-22,-17
-71,-91,-49,-20,2,0,-8,-24
1,7,-63,-75,-23,-4,3,-15
16,10,30,94,-17,1,2,7
1,38,22,-4,56,15,9,11
3,1,31,-54,-37,-14,-2,15
59,11,2,89,3,-2,6,19
4,17,-38,16,14,4,5,36
-42,13,-20,-39,21,16,0,-30
-18,8,12,-33,-25,-11,-16,-22
-86,-128,34,9,-46,-25,-20,-87
-13,37,-53,-48,14,2,-17,9
8,19,39,2,-21,-8,27,53
54,11,-68,56,-57,-9,-1,-3
72,-32,27,48,96,11,-18,-48
-73,-21,-126,-43,-17,-12,-27,3
-26,16,51,2,-7,-5,0,10
19,24,-29,1,-8,9,10,6
-2,3,-5,0,-3,5,1,26
3,-22,43,-18,-18,2,23,44
70,33,-18,36,11,-8,1,-16
-12,-11,32,-21,5,-4,-16,-22
-19,20,-26,-4,-3,-10,-23,-44
-31,-84,1,0,0,2,-1,-54
-1,-9,25,-4,-5,3,9,30
-6,37,1,-82,-16,-8,-5,17
24,39,-6,-6,-46,-16,1,13
-18,-47,10,68,40,19,12,15
51,0,-60,22,60,13,-12,-15
-55,50,43,-38,-35,-21,-31,-30
-2,-4,-32,-25,-25,-3,0,-27
-3,-7,30,-17,-15,0,9,21
-14,24,-9,-107,-76,-14,-5,14
32,-29,17,127,109,19,33,29
28,30,-6,-42,1,-7,-4,11
-25,-87,11,-28,-52,-12,-23,-27
-20,34,27,11,45,5,3,10
0,-13,6,-2,0,-2,0,-19
-7,-28,-43,-9,-20,-12,-12,-4
-101,24,2,-1,2,2,-25,-55
9,25,43,-30,-23,4,18,36
31,1,37,88,48,18,17,17
-37,-18,-42,1,-2,4,-13,-38
0,-1,23,-11,-17,-16,-18,-19
65,16,15,-123,-22,-7,-1,-2
-41,-30,-1,127,6,-3,-5,-13
-21,4,11,-13,-20,0,-4,-4
11,0,-12,73,32,-2,-1,18
23,44,-9,-52,30,7,14,12
-9,-35,1,-19,-11,2,-3,-13
-6,-2,4,-10,-10,5,-11,-31
12,9,13,4,-11,-8,-12,21
35,-36,-20,2,-18,-12,-4,3
-25,-2,-1,4,-13,1,35,6
6,0,-2,-85,-22,-5,8,30
-6,-2,-21,120,77,20,13,19
2,-21,-7,-22,8,-5,-14,-27
-51,-16,7,22,-29,-9,-5,-25
77,44,15,-78,-19,-7,1,51
-6,-7,-32,-24,-3,-5,-12,-14
-43,-15,-12,32,23,-4,-32,-51
-7,-8,0,-9,-6,1,22,1
-9,-14,68,-128,-68,-13,9,36
33,18,-92,127,78,20,15,10
43,1,55,-20,11,11,-9,-6
-12,-53,-128,-22,-17,-17,-26,3
-59,34,74,-21,-18,-10,-2,-24
-22,-58,-17,-7,-5,0,11,11
5,7,24,6,-3,0,-2,13
23,49,-18,-10,-17,-8,-7,1
1,15,46,55,-21,3,-7,-22
-4,-22,-13,27,59,14,50,65
44,-19,-34,-16,4,-14,0,-19
14,37,23,-4,-1,2,-24,-63
-3,8,22,-2,-10,-3,-17,-7
28,3,-15,-23,-11,4,6,29
-28,-3,2,38,-14,-4,-5,3
-40,9,-12,-35,0,-4,40,30
42,40,31,82,-33,-8,18,48
64,-6,-30,69,74,20,20,50
-6,20,-5,-52,-8,-8,-34,-70
-78,-118,37,-20,-20,-21,-48,-128
8,-40,-50,-18,-13,-7,-4,-5
20,27,-22,-5,-9,2,9,31
15,32,25,-68,-25,-2,5,27
-1,25,49,55,-78,-10,12,25
-13,-12,-51,127,127,33,18,18
-7,6,22,4,14,3,-4,18
31,11,-26,-35,-31,-13,-16,-25
36,0,-101,-27,-30,-17,-15,-32
-39,-5,12,-7,-12,0,-5,4
-25,-87,-32,-10,-8,-3,15,5
28,30,27,13,-4,-4,-6,-10
-31,-23,3,-15,-12,4,0,-1
-24,14,63,-128,-88,-26,-32,-7
48,58,-25,127,127,49,22,15
1,16,-128,-128,-6,-4,63,17
10,-95,29,-36,-61,-21,-14,-16
20,17,-8,-70,34,3,-32,-18
25,-14,11,-10,-13,-3,-15,-55
-11,10,16,3,-5,10,19,16
1,30,-6,12,-4,-6,13,26
-1,16,9,5,-10,-12,-35,-60
23,-6,-13,8,-7,-3,-9,-10
31,18,7,11,-2,5,4,27
-10,-8,4,-6,11,10,12,13
-9,-2,29,37,14,-8,-3,9
8,5,-35,-7,-37,-9,8,22
-41,0,15,-48,31,8,2,16
7,19,-62,48,12,-7,-25,-61
-40,-128,12,-44,-19,-12,9,-29
23,21,-2,19,-19,-5,-6,12
48,31,34,32,20,4,4,4
9,21,20,-18,-4,8,22,60
24,15,5,-39,-28,-5,4,-10
7,24,37,-9,-43,-16,-29,-64
-17,25,0,26,118,28,3,14
-5,-28,-20,30,0,-10,-21,-4
-7,-45,-97,-39,-23,-5,-9,-47
-13,-28,-17,-31,-20,-7,1,12
-7,-7,36,2,-14,-3,12,29
36,29,42,-10,-92,-11,14,17
23,-13,-31,127,113,0,12,-9
-23,-23,15,-128,22,-1,-14,-12
-43,19,-28,-16,-19,-7,-15,-13
-15,-70,-12,4,-14,0,11,9
15,31,21,6,-12,-3,1,8
-5,6,24,-47,-29,-5,3,24
12,60,35,5,-15,0,15,47
7,26,-27,111,71,19,9,-34
-49,-111,-7,-28,-8,-4,-42,-47
80,50,13,-26,-15,-21,-19,2
-54,-63,-23,-23,-20,-13,-17,-42
-36,-6,27,-17,-11,-13,-12,-22
-6,21,-80,-5,2,8,6,11
5,11,15,-3,1,4,13,27
12,1,5,-6,-6,-10,-1,24
0,23,17,-62,-43,-1,-10,-9
45,5,9,127,35,17,31,1
-45,-44,14,-61,67,2,-13,8
-33,-38,-54,-21,-5,-5,-18,-53
-9,31,23,-128,-46,-14,-9,1
-4,-16,3,127,29,6,5,10
16,26,32,-36,-29,2,7,24
21,-6,25,127,33,15,15,47
-12,-80,-25,-128,17,5,-1,-41
-21,58,15,2,-13,-8,-23,-64
25,15,-47,29,-39,-29,-14,25
4,-1,39,-76,-1,-6,-11,-18
-51,-53,-10,-21,-41,-1,-8,-39
-4,15,-29,36,54,13,10,18
8,14,-30,-20,-10,-6,8,14
23,6,7,-6,-15,-6,-2,16
-8,32,18,0,-9,1,7,14
-7,-4,-12,-5,-12,-6,-21,-24
-53,-4,8,7,6,-7,6,1
52,-4,-27,-3,-6,-8,-3,7
-39,-90,-8,7,-2,-8,-19,-13
-33,19,35,-7,1,5,0,-6
4,16,25,0,-2,7,-7,25
49,35,-26,-16,-7,4,38,85
57,0,-41,-42,-14,-5,-4,-21
-84,-41,3,83,26,-3,-54,-128
-14,-8,28,0,-5,-7,-28,-45
-8,2,14,-51,-13,3,0,-7
7,-5,15,-5,7,5,12,32
8,-1,-52,-15,-9,-1,7,23
-3,3,6,14,4,1,3,13
-2,21,31,-128,-62,-12,1,10
-6,47,29,127,-33,14,42,72
49,31,112,-128,124,38,36,44
127,-61,-128,-93,-16,-15,-70,-115
-128,-40,35,-39,-43,-28,-48,-81
-1,-14,74,0,-22,1,4,16
14,29,47,11,-15,-1,12,21
15,19,-11,-1,-10,-4,10,17
9,3,-8,24,-4,-1,8,6
0,15,14,23,-27,-1,-10,-3
-14,12,25,-23,17,6,11,7
6,19,-18,127,73,13,18,44
21,61,-108,9,9,-1,-8,-12
77,-104,-4,-25,-13,-7,-16,-60
-83,-17,24,-9,-19,-12,-21,-48
-23,-15,22,0,-8,-3,-1,7
14,36,-38,-13,-6,-3,3,15
48,9,-2,0,-9,0,-2,25
18,1,-14,3,9,9,33,41
-43,-11,23,3,-11,-20,-1,-12
12,31,73,12,-4,-6,-5,-8
16,-17,-15,-37,-24,-6,-8,-8
-30,-59,-24,-28,8,5,-1,0
-5,0,-16,100,33,0,-15,-54
-5,0,7,37,-4,8,-1,9
-7,25,-26,-26,3,-7,-4,10
67,18,11,-75,2,9,11,26
51,63,65,-52,-26,-3,3,20
-63,-85,-115,49,3,-2,-11,2
-6,-29,21,6,-12,-4,-3,-37
-20,13,22,18,19,10,7,1
-10,39,62,-40,-21,1,3,2
10,35,-14,127,49,8,6,-5
10,-62,-80,-85,-7,-4,-8,6
1,4,24,-19,-11,-5,0,1
-41,-4,9,64,-9,5,0,23
-8,17,-8,-52,6,-2,-8,-29
3,29,27,-3,-5,-5,-10,-62
71,-3,-9,1,-1,0,6,39
0,-23,4,22,-5,1,-19,-7
-38,33,51,8,-20,-4,2,-16
-38,-1,-22,-46,12,-1,17,-7
62,29,-9,74,42,-6,-18,-26
-11,-62,-57,-11,-11,-4,9,18
-29,-24,41,1,-29,-6,-12,-15
19,30,8,-70,-14,0,7,19
7,22,2,59,35,15,23,45
16,-11,14,12,-11,-8,-12,-22
13,-37,-23,-26,6,6,-9,-33
-30,12,-11,20,3,0,-9,7
0,34,24,-50,-10,-3,8,35
-7,-24,-32,1,-4,0,7,12
-3,10,20,-1,-6,-4,-14,-60
-29,-13,-15,-1,-5,-13,-14,-7
46,3,4,-5,-2,0,10,24
-15,42,22,-13,-119,-26,-10,3
-13,-7,28,127,127,38,27,47
5,-14,-80,64,92,29,28,24
43,-9,-41,-55,-13,-14,-27,-48
6,-22,23,-26,-38,-24,-47,-55
-69,-23,-1,-17,-29,-13,-10,7
8,-10,29,-11,-16,2,-9,16
16,25,35,28,-1,-5,19,-9
11,29,6,-22,0,-5,7,11
7,15,12,-128,-37,-11,9,26
-14,36,30,127,43,18,17,35
-26,-18,-65,1,26,5,-27,-49
71,-33,-44,-33,3,-9,-10,-16
32,-63,17,-21,-19,-17,-11,1
-66,12,51,-42,-37,-11,-6,17
-27,14,-12,-53,26,12,10,-15
88,4,-24,69,20,4,-3,22
-44,-5,6,18,-20,-1,-6,-34
-31,19,-1,-28,8,-12,-15,-36
-13,-37,55,15,5,-4,-15,-32
10,15,-16,1,-10,-2,0,-9
-2,12,-2,9,-11,5,5,15
-5,-20,8,4,-44,-18,1,9
15,10,-4,17,65,12,3,15
-1,41,-36,-88,-41,2,15,30
11,20,-5,100,25,23,14,18
53,-30,-19,43,51,-2,6,-44
-56,-72,16,-21,-22,-9,-20,-4
-86,7,63,-18,-21,-14,-12,-13
7,-8,-44,-19,-22,-7,-2,4
17,12,-2,-8,-8,4,4,5
12,30,21,-32,-9,-2,2,4
1,6,23,57,-21,-7,2,6
-21,20,8,-40,35,25,20,51
29,0,-10,27,44,28,67,56
89,26,43,-17,10,-22,-46,-83
-1,2,11,-19,-27,-25,-60,-104
-85,-52,-84,-12,-19,-16,-22,-51
20,25,19,4,-10,-2,9,22
8,-11,31,3,-5,4,15,26
-6,38,34,-8,-9,2,6,19
-7,1,6,10,2,2,4,19
0,4,-10,8,-2,-3,2,8
0,5,-2,-3,14,6,5,-4
-6,23,19,-36,-8,-4,-5,-10
-32,31,-32,-54,-27,-1,14,57
14,14,64,127,-62,-1,21,56
121,17,-14,-39,127,21,-26,-72
-53,-74,-72,-59,34,-16,-61,-128
-56,-103,-14,-40,-36,-13,-20,-25
20,52,121,-10,-30,-4,9,38
11,19,-128,-24,-28,-6,10,26
12,20,22,2,-1,8,17,28
16,-2,22,-28,-23,-3,4,17
-21,-20,11,93,21,5,2,-4
3,12,2,-10,-2,4,3,3
9,-4,43,4,8,-2,-1,4
-2,12,-48,-52,-20,-5,-2,-4
-45,-27,-28,84,17,11,14,64
34,3,14,11,-3,8,54,53
121,23,1,-7,-16,-25,-37,-116
-118,-46,13,-8,-12,-12,-48,-67
-29,11,-1,1,2,-5,-2,18
-5,11,10,-2,0,3,15,25
-8,14,6,-4,-5,-9,-9,21
17,30,-8,2,-2,7,2,3
8,33,1,-2,-2,4,23,6
18,32,7,13,16,2,1,15
6,-88,-46,-19,-1,-1,-13,-16
9,-70,5,-5,-15,-11,-7,-6
-21,21,24,-60,-46,-7,1,1
-6,23,-5,65,-5,13,18,4
42,1,54,102,96,20,34,55
54,-6,-40,5,20,-3,-17,-17
-44,24,-16,-49,-37,-21,-49,-91
2,6,31,-23,-26,-11,-6,-13
7,2,31,-20,-25,-2,7,25
2,1,8,-6,15,6,15,23
5,8,1,43,7,4,12,20
2,-7,-3,12,-4,-4,5,12
-11,-15,13,26,-87,-15,-6,-2
-11,32,-19,41,127,27,-2,5
37,48,3,-109,7,33,69,62
120,17,-3,6,-18,-24,-22,-9
-128,-128,26,-56,-32,-35,-58,-94
-25,-18,-33,-16,-23,-18,-43,-58
8,0,-41,2,-6,6,7,10
17,31,23,-29,-4,4,20,24
17,28,23,66,6,5,1,17
21,15,20,-10,7,5,3,19
-13,13,21,20,1,7,4,30
-26,-6,28,15,9,4,7,7
-1,10,-26,-30,-2,-7,-13,-53
14,-10,-9,21,4,7,-7,-16
18,12,3,1,-18,-6,-3,7
-16,-28,-9,-24,4,-2,-10,2
-23,-4,-9,21,-2,-1,-3,-47
10,11,29,-76,-42,2,13,12
-9,1,-6,127,72,14,37,33
37,-16,19,-128,45,6,7,8
57,38,-8,44,-15,-8,-9,-22
-50,0,-38,-21,-29,-14,-41,-69
-9,-54,17,-54,-25,-10,-6,5
-2,-69,-103,-8,-35,-7,8,12
-3,15,10,46,-19,3,2,18
-29,8,12,86,64,23,22,27
26,20,34,-89,-23,-11,0,-2
43,9,-25,9,36,0,-17,-9
-21,12,-4,-7,-10,2,-7,28
15,-6,17,-6,-6,0,-5,-45
-15,26,9,-2,-8,-5,8,-44
-45,-41,7,3,-5,-8,-3,1
-3,-7,-12,-5,-7,-7,5,9
27,30,7,-4,15,24,37,37
5,19,4,-5,1,10,0,27
35,3,-8,-91,-44,-46,-52,-68
-60,-48,14,125,-9,-20,-17,-10
-37,-23,-94,-32,75,25,13,38
-13,-6,24,-128,-50,-2,7,-32
22,-82,4,127,51,10,0,2
3,19,11,-21,7,2,-13,4
30,21,-2,19,-27,-6,3,28
-9,38,2,-98,-20,-11,-2,-59
0,-29,7,2,19,2,0,-1
22,31,38,117,-22,-9,-11,-15
-34,-46,47,-11,19,11,14,24
-5,-6,-128,-6,23,4,6,44
-9,-28,23,3,5,1,9,-9
1,33,19,-19,-14,-1,-33,-106
20,19,73,0,-11,-1,26,30
29,-26,5,-31,-26,9,2,22
8,45,-21,38,30,-11,-16,3
9,-2,-61,-53,-8,-9,-6,4
-17,-78,26,33,-1,1,2,1
4,15,96,8,13,6,8,12
-1,7,-126,-13,-10,-2,-1,13
18,12,-13,-33,-15,-1,6,29
-16,-24,15,21,-3,-7,0,-25
-4,13,16,78,-28,-2,-21,-70
20,-13,17,-88,-12,-9,-9,14
-64,-23,-19,127,53,-3,-6,20
68,19,-12,-50,1,-4,0,6
-65,-30,-8,-17,-7,1,-7,-68
-10,0,-3,-3,-12,3,11,13
-11,48,37,-57,-26,-5,-25,0
16,57,-1,79,32,8,9,31
15,-128,-66,-15,-1,3,-7,-9
-23,-128,-25,-12,-8,-9,-5,-16
-8,15,-20,-6,-6,-1,0,8
6,44,27,-15,-10,-5,1,3
1,18,17,10,-21,-3,-6,0
9,2,-7,-6,30,14,6,4
-2,7,3,-1,-6,-7,-7,-8
-3,6,15,16,10,-3,-2,-1
-34,23,-18,-19,-13,-6,3,36
40,34,47,-76,-116,-13,26,56
112,-40,-65,127,127,23,-18,-50
-116,17,55,-60,19,-1,-56,-128
-73,-104,-128,-56,-41,-21,-17,-6
-9,20,63,-31,-30,-6,8,26
14,18,55,3,-14,2,10,33
13,25,23,7,-7,-1,10,23
3,2,-15,-14,-7,1,8,12
4,16,5,55,17,4,8,6
5,-13,-23,28,17,4,3,1
-25,-3,-11,-17,-5,2,-3,2
-6,24,30,-45,-12,-10,-28,-6
42,24,-58,53,-39,-14,14,95
9,-117,0,41,49,5,42,34
-68,-37,-69,-37,22,4,-64,-128
-12,23,14,-28,-14,-7,-50,-13
7,5,12,1,-9,0,7,34
18,16,9,4,-6,1,14,34
14,19,10,8,-2,2,12,23
6,6,2,-12,-12,-4,7,11
-25,-9,10,-44,-37,-7,-7,-16
1,45,11,43,61,46,39,95
88,31,3,70,12,-7,33,50
109,-51,-10,25,-27,-43,-54,-109
-128,-18,-23,-22,-45,-26,-64,-69
-15,-128,-72,-46,21,6,-1,19
11,26,31,-31,-4,6,9,-14
39,50,72,-36,-30,-2,8,20
11,4,-26,80,-13,1,5,11
-24,12,3,-128,18,10,9,12
-17,30,75,-37,-79,-13,12,29
47,19,-25,111,127,14,-2,-22
108,-3,-74,-75,-17,-8,-22,0
-89,-72,67,-38,-38,-20,-16,-18
-38,39,-96,-75,-26,-4,-2,-6
-19,-16,4,108,21,5,5,2
11,-12,29,-68,-3,6,3,6
-19,10,-46,17,-5,-4,2,-4
2,4,4,8,-23,-9,-9,-25
-7,25,0,1,6,-1,-3,-7
0,-25,4,34,22,5,37,33
39,-1,-10,1,-1,0,16,41
-31,32,33,-7,-8,-5,-15,-30
-47,-58,-4,-10,-10,-3,-42,-53
-57,-50,27,-27,-14,-13,-11,7
127,21,-57,0,-3,0,-9,-59
-34,-20,-1,20,-5,-13,-9,3
-3,33,23,-3,10,-2,8,23
-6,13,1,-3,-5,1,3,16
-7,23,28,-17,-19,4,4,16
-7,-6,6,66,-10,-5,1,15
-6,2,-20,-21,51,22,2,-12
-11,5,5,-109,-42,-9,23,-8
-6,25,2,127,42,7,10,20
47,8,41,125,0,10,18,4
-58,-16,-33,-126,55,8,-26,-54
-59,-15,-106,-103,-56,-20,-37,-21
5,2,20,-86,-47,-10,1,5
17,21,34,127,54,15,16,18
17,18,-33,-95,7,9,17,39
-4,11,32,-103,-28,-4,2,-8
-11,16,18,70,-48,-13,-20,-49
6,15,-15,-35,38,8,-1,29
125,-30,-9,11,-21,0,13,34
-81,-14,17,-78,67,19,16,16
-15,-13,5,-89,-28,-11,-4,16
-27,22,37,-22,-28,-7,-17,-69
7,43,28,28,22,0,6,12
22,-26,-92,-13,-16,-13,-16,-34
18,11,-28,4,-19,-14,-44,-15
-40,-21,41,59,-15,-1,3,12
-102,-27,-58,-26,21,7,1,-16
-30,17,20,-9,-8,-4,3,12
58,43,39,16,-5,-3,53,79
23,1,-1,-33,2,11,-12,-16
-17,-23,0,-10,-5,-1,-25,-57
-13,11,-5,-58,-25,-7,-11,-16
-28,-22,9,55,3,0,16,20
-26,42,79,127,28,3,9,-37
53,-62,-124,-22,71,15,-19,3
-22,19,59,-57,-27,-8,-2,11
-18,-66,-35,-17,-19,-8,4,15
13,33,10,-2,-15,-1,3,4
-4,6,1,7,1,3,8,3
3,19,21,-1,-14,-14,-9,-7
-27,-6,5,-128,-90,-19,-6,-3
5,24,-5,127,127,24,11,7
24,-2,-69,-128,0,-1,-7,4
65,19,-1,-25,-23,-7,29,18
-41,-32,6,-9,-19,-4,-11,-26
-1,2,34,8,-22,-5,-9,9
17,9,50,67,1,-4,9,30
-11,-15,-45,-27,-17,0,4,-34
-6,18,3,6,21,4,-15,-38
32,-10,2,-48,-1,-10,-24,-28
-20,-16,7,3,5,9,14,28
18,30,8,4,-9,-2,10,11
-14,-34,-26,-4,-13,-11,-33,-37
-44,-42,3,1,-1,-8,-4,8
5,-10,-13,-11,-12,3,9,18
4,21,-41,1,2,-3,5,8
-3,-2,5,10,-8,-1,-23,-19
31,-10,13,-69,23,10,27,21
43,38,6,92,23,6,8,16
-48,4,30,-41,-22,-8,-8,18
21,-16,-7,100,4,6,-15,28
-30,17,0,-37,1,-2,29,-73
25,-2,-53,-50,9,-5,-30,-46
-42,-47,16,-23,-13,-9,-28,-28
-7,15,3,-21,-11,1,5,22
8,27,2,-43,-22,-3,5,22
19,-11,8,56,-11,-8,5,21
7,32,3,70,64,12,8,9
-11,-33,-18,-7,-9,-1,-1,2
1,-12,10,-4,-11,-2,-1,-12
-2,7,56,-61,-16,-8,-4,0
-18,24,-16,41,-30,-4,2,32
-2,28,-54,124,38,28,49,70
16,-48,-2,-23,6,-26,-41,-35
3,-48,-34,-56,16,-12,-57,-128
-87,-14,27,-37,-25,-18,-37,-17
-2,3,5,-4,-13,2,10,-6
15,20,-2,7,-2,5,17,32
9,17,14,7,-7,2,9,28
9,19,20,3,-1,5,7,21
-1,4,-5,2,2,4,4,6
-16,-10,9,-93,-31,1,2,13
15,11,-14,127,53,7,21,6
27,-94,1,-36,39,4,-10,1
-71,-24,-10,-20,-22,-13,-26,-35
-86,-14,-75,-7,-12,1,-8,-16
5,26,60,-21,5,7,6,-2
6,16,-30,-11,-15,-23,0,-3
10,21,21,22,-18,-6,-5,6
-1,-10,31,-35,0,7,3,-3
6,5,-2,-6,3,-3,-2,-4
-1,3,3,-3,-8,-4,-3,3
-1,0,-5,94,19,5,4,0
-7,5,1,-52,2,7,9,19
-1,12,40,-128,-54,-7,4,54
-30,-8,24,90,69,12,3,-11
44,30,-128,-55,11,6,-8,-81
56,8,78,11,-38,-32,-27,-19
-21,-100,-38,-60,-27,-17,-21,1
-125,-70,30,-50,-16,-6,-7,-1
-8,45,22,-1,13,6,3,-13
-12,21,5,10,-2,-6,-1,8
11,11,12,39,-4,-1,7,14
23,10,-50,-50,-57,-3,-9,11
4,9,-3,54,93,24,8,21
2,13,-26,111,28,19,78,38
14,1,4,-23,-5,-10,-16,-21
34,-16,-23,-18,-22,-24,-38,-31
-17,6,4,-46,-15,-7,-15,-4
-36,10,68,53,-2,6,21,61
40,14,-36,5,2,15,30,48
13,-17,-38,-57,-30,-17,-41,-111
-33,-72,-25,47,6,-4,-35,-43
-54,11,79,-40,-4,-4,-4,19
4,12,-40,102,19,8,8,23
11,19,42,-47,1,6,9,21
25,21,14,17,-32,-9,5,16
9,19,-3,63,6,-2,2,5
-16,9,-1,2,32,15,2,-10
5,-12,-8,8,4,-8,-15,-11
46,-11,-7,-29,-2,-5,5,15
-12,2,31,-15,-14,0,3,1
-9,13,34,5,-16,-3,-5,-3
-17,-9,-32,-33,-19,-7,-14,-14
-14,-6,8,12,5,1,-6,-28
-2,0,0,-4,-3,0,-1,-2
3,5,19,-128,-71,-20,-2,-1
-16,14,36,127,5,4,29,92
20,20,-11,-62,105,54,70,44
127,21,-20,-128,-47,-20,-95,-128
-128,-88,-105,-51,-55,-28,-24,-12
-14,-1,103,-12,-28,-15,-10,1
6,-60,-115,-5,-19,1,14,43
-16,-44,2,48,11,5,15,26
10,46,37,-66,-9,1,-2,-28
18,34,31,127,6,-8,6,16
9,6,-6,11,23,1,-2,-2
46,34,14,-51,28,12,0,11
-34,-20,24,-9,-8,-2,0,0
-6,-27,-39,-4,-7,-1,2,3
-1,-29,-36,-1,-7,1,-8,11
-14,-9,15,7,4,-1,10,1
17,37,24,2,-2,-5,6,-12
24,3,-14,-5,-6,-10,-27,-21
-91,-46,12,5,5,-1,-12,28
-4,-8,-11,3,-3,-1,-11,-32
63,26,4,-1,6,-5,18,-75
18,24,39,-25,-34,2,0,20
-20,-41,-29,-4,18,-1,0,14
-12,13,26,5,10,0,2,17
-7,-19,21,122,28,-4,-2,10
-10,-9,-62,-11,3,-3,-3,3
20,-12,5,-71,-17,2,4,-8
-1,-7,61,-128,-110,-24,-11,11
-21,16,-91,127,127,15,7,0
10,-11,-8,-71,-10,-10,-9,-17
-29,-13,50,-33,-37,-18,-23,-23
-12,14,1,-36,-1,2,16,44
26,31,20,127,-7,9,19,25
23,-3,-18,-59,39,3,-20,-78
-44,-32,-7,-24,-20,-11,-35,-31
-17,6,6,6,-13,-6,5,11
8,-3,22,-7,-15,-8,9,37
-7,55,-56,7,-3,2,-4,14
-12,-21,-31,3,3,15,12,34
56,6,0,-13,-9,-3,18,16
67,-28,5,-7,-16,-43,-40,-66
-15,-11,45,-3,-8,-12,-27,-26
-75,-2,1,7,0,3,-1,9
-32,-1,-94,-9,0,10,6,9
-12,-38,13,-1,1,4,2,6
6,7,5,4,3,1,6,8
-5,14,8,-24,-5,1,12,15
-24,36,41,69,-90,1,19,78
29,6,-5,44,127,48,64,23
100,-67,-5,-72,-21,-22,-61,-128
-68,-26,-48,-92,-61,-29,-50,-73
-40,-35,-38,100,-14,-4,-3,-13
7,32,51,-16,57,18,14,27
12,18,19,-12,-7,4,13,22
10,8,14,-14,-15,-8,5,16
-3,4,16,-65,-53,-10,-1,5
-14,1,52,127,-1,-4,2,3
-3,0,-105,-128,86,18,9,6
2,18,-1,-98,-41,-11,-10,-9
59,-128,-60,73,11,-9,-10,7
-28,-32,-14,-15,-7,-1,-21,-12
-9,15,22,9,-10,-6,8,-18
-8,36,18,7,-11,-5,12,38
42,3,2,0,-7,7,2,20
-87,-17,8,2,0,-1,3,-13
3,28,-10,2,-4,-10,-20,-19
-51,-63,-26,-5,-8,-11,-26,-75
59,15,48,-8,-5,0,-5,10
0,-18,24,-35,-1,10,9,15
-11,9,-110,83,38,14,25,1
7,16,-70,13,-7,-12,-17,5
-3,-19,36,-40,-9,-8,-4,14
11,15,14,-8,-8,2,9,18
5,18,9,-1,4,7,6,8
15,-5,12,-34,-12,-3,2,2
-5,2,5,-81,-25,-4,2,12
14,19,2,120,-35,-12,25,86
-12,2,6,114,127,30,9,-5
-17,-8,-77,-67,-7,-1,-47,-128
3,-55,-38,-39,-25,-19,-24,21
-6,-9,32,-28,-28,-9,3,29
-9,31,14,-42,-30,-17,4,22
16,3,-29,127,-22,-1,0,16
-11,-11,-12,-30,38,19,14,29
-1,-3,24,-9,-5,-5,2,4
-4,-30,-35,-20,-9,-6,1,2
-7,5,38,3,2,-4,6,-9
1,-1,-128,-16,-3,7,-31,-24
28,22,25,-16,-14,-9,-2,-5
-11,27,21,-40,-36,-19,-5,-15
-46,42,12,127,-31,4,14,39
24,-43,-42,-57,127,34,25,13
90,-105,-26,-57,-36,-15,-48,-57
-54,23,16,-14,-31,-16,-28,-31
-37,6,-7,0,-13,0,2,-13
-1,27,14,-1,-12,0,17,16
8,1,-13,-39,-4,4,7,23
54,7,20,69,12,5,0,-6
-21,-10,-54,-8,-6,-3,0,4
-9,22,13,-2,0,-8,-2,-1
-7,-49,-18,-23,-1,-6,-11,-15
-9,5,21,10,6,2,-5,0
29,-19,27,11,-6,2,0,13
3,-21,37,11,6,-1,0,1
3,1,-41,-128,-59,-23,-8,-4
-22,-8,-21,127,45,5,9,2
2,21,16,-104,47,20,27,52
28,-3,-13,-14,-18,-6,-37,-33
48,-20,-6,8,-13,-16,15,-6
-6,-9,38,-71,-33,-14,-19,-34
-70,1,44,40,-35,-13,-15,-12
0,-15,-32,121,53,14,5,2
31,37,-17,-128,24,17,16,37
-19,40,31,-30,-65,-13,0,28
42,-17,11,74,101,21,15,8
-48,-12,2,19,-4,-5,-5,-17
27,14,-22,-12,-12,-7,6,5
-19,-4,23,-16,-18,-15,-12,-6
-11,34,22,11,3,1,-9,-14
20,23,30,0,-3,-14,-4,-4
-3,-79,-78,-19,-10,-7,-28,-50
16,25,38,12,0,9,11,9
18,49,-12,5,12,10,19,72
3,-9,0,-1,4,2,55,21
15,19,62,3,1,-2,-37,-108
-94,-37,-101,-13,-9,-13,-28,-27
-10,-8,6,-77,-21,-11,-23,14
-14,-52,31,52,-43,-4,23,22
26,40,-11,31,79,32,29,34
21,-20,3,-31,-19,-28,-27,4
-20,-13,-26,-7,-31,-19,-20,-30
-11,-5,20,-98,-15,-6,-10,-28
-4,6,-8,116,18,11,1,-28
6,41,48,-14,7,6,11,13
-17,-9,-15,-47,-25,-5,3,6
-9,-25,-39,-69,-17,-5,7,9
5,-13,33,56,0,-6,-5,-4
33,-3,-15,-63,18,9,-7,-2
-23,-26,-71,-9,-15,-12,-7,14
8,38,16,-15,-13,-8,1,-13
-68,9,4,-33,-34,-8,-7,5
10,-6,-5,47,31,9,1,-11
0,-15,29,-8,-5,1,-4,-11
-31,-4,0,-1,-8,-2,-5,-13
6,6,14,-6,-3,-1,-10,-24
24,-14,-23,0,-4,-8,-2,0
4,8,-27,-1,-7,-6,-10,5
-40,-2,10,-5,-2,-6,-22,0
4,33,15,3,5,12,17,10
17,45,-32,3,7,8,37,47
51,-42,65,2,-2,6,0,-1
32,-72,-88,-9,-10,-9,-41,-26
-64,10,15,-8,-11,-16,-44,-5
-11,-7,-1,1,4,-4,12,-11
-84,-2,-8,6,5,10,28,15
49,18,10,-25,-38,-8,7,16
-31,-20,24,82,27,-4,-34,-30
0,26,78,14,39,13,-1,-13
-5,-11,-117,-41,-42,-10,2,10
6,23,-12,-32,-1,-6,-1,-10
-36,-18,28,21,10,0,3,9
43,-29,-71,-83,-16,-13,-2,17
-12,26,38,-1,-28,-13,-15,-2
-20,0,36,3,8,5,1,-6
15,25,8,-2,-4,-4,5,7
-4,-36,-5,9,-14,-9,1,3
-12,-14,3,-15,-9,8,-6,-2
25,0,43,24,-28,-8,33,28
18,34,-60,88,44,0,-7,-30
-36,25,7,-22,7,10,11,2
-65,-13,-7,-8,-2,10,14,20
12,5,5,-15,-38,-24,16,-1
7,-12,17,6,10,-3,-57,-126
-32,6,-44,7,-22,-15,-20,7
74,-13,25,45,43,14,20,61
6,12,46,-32,-20,7,17,22
4,35,-93,33,-3,9,8,4
-13,20,3,25,41,3,-4,2
-26,-96,-6,-19,1,-3,0,-7
-22,44,26,-11,-17,-16,-5,12
17,-22,-5,-32,-11,2,10,23
-10,21,-19,29,-8,-6,-22,-28
17,-8,32,-63,-13,1,11,-8
-13,9,-28,-30,-24,-20,-18,-20
10,5,32,46,-4,-3,7,2
-9,19,64,23,2,2,6,29
21,11,-79,69,50,19,17,28
36,0,-38,-25,4,9,-3,3
29,-31,5,-28,-13,-5,-19,-36
0,0,36,-116,-45,-16,-20,6
-2,12,45,95,21,7,9,6
-26,2,-22,58,31,13,4,4
5,16,-11,-18,-6,-12,-18,9
26,21,16,-13,-14,-6,3,5
-28,15,23,-9,-6,-6,3,-1
5,-29,-41,-7,-7,2,14,19
33,-21,1,0,1,5,6,11
-5,-28,5,-6,7,-1,-24,-29
-42,-4,-17,-37,-4,0,14,-30
-17,-10,18,102,-11,1,5,50
26,-31,41,-28,23,15,10,12
34,44,-42,2,-7,-13,-44,-104
-11,-21,-40,32,-26,-16,-32,-36
-2,12,-3,-74,23,16,12,22
36,-11,53,-32,-2,2,16,26
-10,18,-50,14,-9,2,16,40
35,-8,39,-8,-12,-4,4,9
-11,33,32,4,-5,-3,-7,-46
-8,-70,-8,-10,-6,2,3,8
18,15,21,23,-23,-9,0,6
-29,33,-7,3,38,4,5,11
23,22,-18,-46,-5,-1,-6,5
-7,-53,11,-14,-21,-4,7,10
6,-6,24,-36,-44,-13,-4,0
-40,44,16,127,44,11,2,-28
1,-18,-93,-74,57,-5,-18,-23
5,-52,-2,-58,-11,-3,-12,1
-22,2,29,-12,-21,-7,-4,-15
-7,36,-22,-38,-15,-2,-1,20
6,-9,15,-52,-23,-10,44,34
35,-27,-6,109,1,-4,2,11
11,29,46,3,7,9,-4,-32
-17,-17,30,-9,-18,-5,-28,2
4,21,-9,-5,14,3,15,15
-10,25,-22,-128,-23,-5,13,24
-6,-7,-19,50,-9,1,-14,-22
52,41,-12,28,26,0,-13,24
-41,-60,40,-41,-13,-10,-16,-68
-41,-18,-15,-14,-18,-13,-11,-27
3,19,12,-5,-8,-7,-2,16
2,-1,2,-5,-5,4,12,26
17,32,5,3,1,5,21,56
4,9,15,21,-19,-10,-3,21
31,-25,-15,-22,5,-1,-33,-49
29,-25,4,15,11,4,-27,-112
-67,-15,-21,-2,-3,-11,7,14
-11,61,13,-2,-3,4,5,17
31,-54,-34,-43,-9,-5,-3,22
24,12,5,49,-13,-2,-2,12
-15,16,43,-49,3,-2,3,3
-11,-11,3,127,-84,-8,3,12
54,37,34,-115,127,50,16,21
14,0,-105,-61,-31,-8,-15,-3
-66,0,40,-11,-30,-14,-11,-38
-5,-26,-19,-40,-28,-9,-2,-17
-7,-81,8,17,-9,-2,-2,17
1,19,45,-29,-58,-7,0,5
11,1,28,87,78,11,-1,-13
10,12,12,-76,25,9,5,12
-70,18,-60,5,-14,-2,2,20
-6,5,-25,-51,-22,-17,-15,20
24,-17,64,34,-5,-8,8,18
-15,-22,43,28,-12,-6,-22,-93
1,18,-30,-12,-2,-4,-18,-32
-26,-8,10,9,4,-5,-16,7
-19,7,-9,5,5,9,45,46
50,40,15,-10,-3,-6,8,22
8,-12,-5,-6,-7,-14,-10,-20
-18,-7,2,-12,-1,-4,-24,-21
-48,-71,-13,24,0,-9,-14,-13
-5,24,13,10,5,9,10,-8
-5,13,-8,1,-5,-1,10,42
21,40,10,-13,-31,-6,20,52
27,4,-24,107,62,11,-18,-54
-45,-42,3,4,22,4,-23,-87
-68,24,14,-23,-11,-1,-6,-1
-10,-21,6,18,-45,-7,4,21
-4,-23,-24,-25,21,-2,4,17
-6,26,2,30,-6,-3,3,15
34,10,24,-128,-49,-3,5,18
61,11,-29,127,32,6,6,15
-52,-41,72,-128,26,5,-2,-8
-45,-54,-128,-54,-20,-8,-14,-20
-14,-1,87,-128,-72,-13,-5,-6
-9,27,50,127,22,-5,-12,-10
-3,26,-2,-57,29,18,15,7
3,-9,17,-31,-19,-19,44,6
66,5,-39,-13,-19,-13,-42,-44
-22,-2,3,-6,-10,1,3,32
-1,8,5,1,-4,-3,17,39
19,51,-12,5,-6,-18,-12,-3
-77,-11,13,3,-2,4,-9,-50
-7,10,-6,8,5,15,-5,-35
-10,-51,9,13,-1,-15,-9,-20
-17,-37,-33,6,-7,-12,-23,-11
12,6,-32,-8,-1,-4,-11,-13
-19,22,19,7,3,7,5,14
10,16,-17,-25,-7,5,11,21
7,5,13,-11,-21,-2,14,20
3,-1,-4,47,9,6,-8,25
-2,15,1,22,42,10,31,-2
-9,13,17,-33,-1,2,-4,-1
12,5,-13,39,-26,-9,-6,7
57,-51,-26,63,21,-4,-8,1
-24,-59,-46,-98,-8,-15,-29,-27
-80,49,23,-31,-21,-6,5,-2
-52,-68,58,-8,-40,-9,12,9
0,33,46,77,64,18,15,23
9,-13,-84,-4,-59,-5,4,26
106,5,-36,96,115,13,-9,-38
-45,-16,15,-58,-5,-1,-29,-42
-23,-7,10,-20,-24,-8,-7,6
-11,-11,18,-2,-17,-6,5,6
7,5,-13,-3,-7,-3,7,12
14,-3,13,11,2,4,29,56
-26,16,1,13,-3,5,8,14
-42,-5,11,5,-1,-1,-51,-94
39,5,12,-3,2,-16,-17,-48
85,46,-32,-4,-4,-10,12,31
-52,-88,-11,0,-4,1,-6,-5
-22,-14,17,4,4,9,6,20
-18,5,-12,10,-6,2,3,18
-9,5,16,-24,-2,4,-3,14
3,59,-32,-81,0,14,76,82
14,15,38,65,-78,-3,19,32
32,-41,-57,127,127,5,-84,-128
-12,-79,-48,-31,-11,-23,-51,-46
-52,11,7,-27,-26,-7,0,19
1,15,-6,-32,-25,-1,14,31
8,0,6,45,-7,3,10,22
10,7,21,-114,-35,-3,5,17
2,16,1,-56,2,3,6,2
3,-7,-37,127,88,22,4,4
-6,-11,85,-14,-14,-8,-4,-9
4,-31,-128,-26,-21,-10,-3,-5
4,5,23,16,-32,-7,-2,0
6,6,14,-17,42,12,4,-10
-2,12,51,-21,-10,-4,0,12
-12,11,-17,-6,-73,-12,10,52
12,-30,-4,101,127,30,2,-30
67,-94,-1,-55,-27,-18,-4,-79
-63,-75,7,-22,-26,-10,-18,-5
8,49,-5,-4,-8,-2,0,15
14,9,-6,0,-1,-3,7,16
4,7,9,5,3,1,4,11
12,19,0,3,-2,5,7,32
-17,6,6,4,-14,-6,39,52
5,19,24,-30,3,6,-8,-55
4,-11,-58,-3,-7,-10,-30,-58
95,-32,-27,58,21,8,0,49
-128,18,16,-4,-3,0,14,24
-39,-57,12,-20,-20,-14,-31,-58
-6,-17,10,-12,-17,-3,1,9
9,19,8,22,-19,2,4,30
26,21,-11,-32,63,11,14,-1
8,26,21,24,-4,0,-9,-12
5,-45,-41,-6,-24,0,-4,19
-2,-18,3,-84,-38,-6,0,10
-25,-4,-20,127,80,9,-2,-8
-2,6,2,-26,-4,3,-2,-9
7,27,35,-13,-17,-4,-6,-3
-18,-4,9,-34,-64,-15,-9,-14
-1,3,-5,79,53,1,-3,2
-30,9,-14,33,32,9,11,9
4,14,5,-33,-11,10,22,50
112,-40,2,38,22,-10,-14,-12
-128,-72,-58,-33,-17,-14,-40,-79
-43,-22,-37,-1,-13,-5,-14,-9
17,48,38,-25,-22,-17,1,28
17,19,13,5,6,3,22,41
-40,-39,8,-2,0,-1,-21,-28
-31,-13,-19,-17,0,2,-15,-111
48,32,13,35,-11,-8,-16,12
84,30,-15,-33,11,3,15,35
-64,-34,14,-6,-6,0,30,35
-34,-37,-4,21,-7,-8,-12,-10
-12,-3,4,-21,-1,-4,-18,-5
3,17,4,19,-1,-1,-7,5
-1,5,-9,-93,-42,-6,3,11
-4,20,-7,85,39,13,8,13
26,22,-52,0,19,13,17,16
24,-27,10,-20,-13,-6,9,7
-20,-62,1,-6,3,-15,-35,-27
-4,-1,-43,-43,0,-16,-31,-39
-3,10,4,21,-13,-1,-8,-84
-7,13,17,-10,-18,0,6,17
5,11,20,0,17,9,7,25
6,19,36,-48,-7,0,7,18
-1,-5,-3,88,-20,-10,-1,7
-8,-1,14,-32,-22,-7,-5,23
2,44,28,71,89,39,61,46
56,-6,-42,-76,-2,1,-10,-45
-15,-77,-30,-18,-26,-10,-33,-51
-2,-46,-1,-5,-12,-12,-8,17
-10,53,46,-68,-30,-7,7,9
32,26,29,106,1,0,8,0
-40,8,1,67,39,-2,-28,-4
-5,-9,2,-26,-22,-1,-3,-5
26,14,-11,23,43,17,36,69
15,12,17,-12,-3,-14,-4,4
-22,7,-5,-13,-12,-6,-27,-108
3,13,2,-11,-12,1,-6,3
2,-26,-8,18,6,1,0,12
17,-4,13,-1,-1,-3,2,8
-11,1,-28,-6,-5,0,2,1
-28,7,27,-6,-10,-6,1,24
9,46,73,-15,-39,12,32,47
68,-11,-73,97,71,-5,1,-30
42,-92,-52,6,15,-7,-53,-93
-37,-33,-9,-16,-17,-10,-24,-3
-32,24,71,-7,-11,3,3,8
2,22,37,-68,-63,-12,-3,-1
13,11,5,127,22,10,53,61
14,20,-7,-60,33,17,54,83
47,53,-6,-24,-18,-14,-30,-51
-49,-74,37,-13,-24,-11,-30,-77
14,2,36,-2,-10,-3,-12,-17
-3,-23,-77,-8,-9,-5,3,20
7,11,27,-3,-4,-7,3,12
6,7,3,-1,-5,0,6,17
-10,-2,20,-112,-54,-20,-11,6
0,28,99,127,24,4,5,7
-5,13,-89,127,125,41,23,36
-11,-22,-41,-48,-6,-6,-4,7
20,-3,15,-57,-28,-19,0,-1
72,-121,17,-39,-25,-6,-9,-4
-128,16,26,26,-18,-8,-25,-29
-6,7,10,-6,11,-7,-18,-34
14,-19,-19,26,24,7,16,43
-5,22,3,-20,-18,-13,-10,-24
6,14,6,29,-34,6,5,-26
4,34,-1,34,109,27,9,4
11,19,5,-17,-12,-10,-22,38
46,6,-4,-1,-10,-7,31,8
0,-29,49,-7,-13,-2,-2,2
-25,67,-91,-99,-24,0,-8,7
-33,-87,-49,127,2,-4,17,39
10,10,20,-3,12,-5,-15,-22
-7,-60,24,-4,5,-7,-32,-89
-20,-28,3,-14,-15,-5,-12,-9
12,18,-2,-3,-4,6,9,25
-6,27,6,4,2,6,6,13
3,34,2,6,5,1,5,14
1,-48,-8,-5,-3,-3,4,6
2,13,5,-1,0,-1,-1,2
-3,6,0,-4,-5,0,-5,0
1,8,-2,-102,-28,-13,-5,-3
-14,-21,23,46,-109,-15,-5,-11
11,23,39,62,127,59,43,48
-1,34,-5,-82,-2,11,20,54
82,-38,-21,-60,-47,-27,-40,-81
-84,-59,-128,-52,-51,-33,-63,-95
-22,-35,17,-21,-28,-10,-13,-16
19,23,33,43,-16,-1,12,25
5,7,1,31,39,9,12,26
13,7,17,11,7,6,9,17
5,31,20,5,-5,4,5,6
2,7,5,14,-38,-4,-1,-2
8,25,59,116,75,17,-26,4
26,-2,-87,-46,23,16,25,25
5,56,13,-64,-29,-2,20,6
26,-2,-23,74,-22,-28,-36,-32
-36,-87,3,18,30,-10,-11,26
-79,-8,14,-9,-6,-5,-23,-95
12,-26,-11,-5,-6,-3,-17,-30
3,24,20,2,-7,4,-6,-1
0,-3,18,8,4,7,25,55
39,30,-14,7,-12,-7,3,19
-7,-52,-17,34,21,11,3,-7
6,-4,20,-36,-1,3,27,2
16,21,9,1,-1,6,-1,10
-15,-43,-27,-10,-7,-9,-22,-33
-10,12,-82,-19,-6,-7,-8,1
-13,-1,3,0,-6,-12,-24,-38
7,-4,23,2,-3,-2,-2,-2
-7,-19,15,2,-3,-1,4,12
7,5,2,-2,0,2,5,10
-16,-2,3,3,-3,0,4,4
27,14,-9,-23,0,3,2,9
7,23,22,-128,-104,-24,7,10
-5,5,2,127,66,26,28,56
36,33,7,-128,35,1,-14,-20
-12,-25,19,-47,37,3,-47,-92
-104,-128,-114,-60,-30,-16,-31,-33
-17,89,13,-27,-38,-10,40,16
20,-2,4,-3,-24,-9,5,0
1,-10,48,-6,-12,0,-5,8
14,-9,-1,49,-26,-5,1,9
-22,3,-7,40,25,6,2,4
12,22,17,-67,19,7,5,13
10,17,96,108,18,7,2,10
-9,-11,-128,-24,10,-8,-8,-5
-10,-8,53,-11,16,8,0,7
17,-23,-107,-4,-12,-2,4,51
54,17,26,0,-19,-8,34,-13
-75,-9,24,4,-12,-10,-34,-93
-55,-15,7,7,-6,-17,-28,-6
-2,37,14,12,4,2,6,22
5,-48,-1,9,6,8,12,40
18,13,-6,8,5,10,4,-11
-12,13,2,3,-4,-5,12,-2
1,25,5,8,-3,-10,-14,-47
1,-35,-48,-5,-3,-6,-16,-34
45,-14,12,-6,-10,-4,-4,19
-3,0,32,2,12,10,5,18
-40,-26,11,25,4,2,1,9
-11,-42,-82,-12,6,-1,1,6
-2,19,23,-1,-4,2,5,6
2,21,18,-80,-16,-6,-7,-7
0,17,19,-16,-61,-25,-11,2
-19,8,11,127,8,3,0,3
13,7,-9,85,127,34,9,-13
29,15,3,-25,40,19,4,-4
42,-33,-15,-43,-22,-3,9,22
-45,24,56,-104,-74,-23,-7,-14
-20,19,-4,87,27,3,-4,-11
-4,-80,-94,17,20,-5,-2,-5
7,0,-124,-59,-21,-15,-17,-24
10,6,30,-4,-14,-9,1,26
-6,-16,21,-36,-35,-7,6,20
-7,33,48,67,21,4,-8,-49
20,38,-4,43,15,9,1,30
35,-12,-3,-67,-30,-7,-18,19
-58,-52,-18,27,24,-13,1,-18
10,4,7,-13,-4,-10,13,-15
9,3,2,-11,-17,-13,-10,-33
-12,14,1,0,2,5,-15,-19
7,-28,-2,0,-1,2,5,19
-11,-5,-13,-9,-6,1,9,15
-20,25,-3,3,4,-1,10,29
23,23,9,1,-1,-1,0,52
78,-6,-3,-10,-15,-15,-12,-22
-30,8,-14,-37,-5,-8,-21,-82
-40,-65,-29,22,-7,-5,-1,1
0,22,65,36,-37,-2,8,16
-1,3,-68,-3,82,28,12,23
12,48,19,-25,4,10,2,7
-13,-23,-60,7,-10,-6,2,1
-7,-31,-1,-28,-20,-15,-1,2
3,-1,24,-77,-44,-12,1,10
0,8,7,104,31,3,-6,-8
-7,14,7,-64,29,10,-1,-21
-12,7,-1,-40,-19,-9,0,-5
47,6,34,-38,-96,-12,15,34
21,9,-28,73,123,24,0,-1
4,-9,59,-125,-21,-11,-38,-52
-57,27,-101,-37,-22,-12,-27,-7
-11,-57,-7,-24,-18,-9,1,12
9,23,19,-11,-8,3,13,-1
27,42,34,18,6,10,8,16
8,23,16,2,4,4,-8,26
7,-36,24,25,-3,-7,1,-7
-25,-30,-26,11,2,-4,-6,-54
-6,48,24,8,2,-4,-13,-12
-7,-18,-19,0,-16,1,0,-4
-14,13,25,69,12,8,22,45
2,-46,-39,-96,6,-8,-20,-27
98,17,-34,32,18,-9,-27,-37
-44,-43,3,-16,-13,-11,-11,11
-24,13,13,2,-10,-1,-13,7
-1,17,16,-2,-9,6,12,16
-12,15,0,1,0,4,14,3
17,8,-15,-19,-6,8,21,22
-12,11,34,-13,-102,-35,-8,12
43,16,18,127,127,24,-16,-10
16,-53,-101,-93,-4,1,-22,-30
-17,-8,-9,-71,-34,-12,-14,-6
-4,7,-36,12,-22,-6,0,-34
-6,-1,11,-58,-5,3,9,7
-1,-8,-2,28,-10,-7,3,5
-2,-26,37,7,-4,1,0,3
7,-6,-20,11,2,-1,0,2
-27,16,2,-62,-27,-8,-2,1
-3,-53,30,41,-40,-9,1,23
25,33,-45,89,69,21,15,-5
35,14,48,-21,62,21,-19,-44
-69,-34,-76,-49,-25,-10,11,-7
-4,-13,-33,-21,-20,-5,-5,0
7,4,16,-14,-14,-3,-5,8
19,41,33,-1,-11,-6,-8,14
0,-12,12,4,-4,-3,-7,-4
0,12,-3,1,-4,-2,-8,-41
5,-5,-6,5,2,2,1,4
2,-1,-3,1,0,-3,1,6
-4,0,0,-1,-2,2,4,7
-19,8,1,1,0,17,16,57
22,43,-4,-28,3,14,31,85
64,-11,19,66,-40,-42,-42,-109
-42,-18,-2,-42,57,-4,-53,-128
-73,-112,-6,7,2,-5,-25,-16
2,23,-53,1,-2,11,11,31
-29,75,15,-21,-8,4,13,25
18,41,18,-40,-18,0,11,22
16,18,15,99,7,0,14,15
0,3,-2,-125,-21,-7,1,11
-9,25,16,96,-30,4,7,17
14,-7,-9,-25,96,25,11,16
73,-33,54,-29,-13,-9,21,4
-62,-20,-97,-57,-40,-21,-22,-50
-17,-45,-13,19,-52,-12,-13,-14
8,14,38,-35,44,19,3,13
-1,-8,-8,61,-2,2,7,12
0,18,-16,-35,40,7,18,53
31,69,-9,-12,-5,-5,4,13
-41,-81,-44,-21,-23,-12,-33,-112
-22,-17,5,0,-18,-9,-19,-21
5,9,-16,17,8,-5,3,17
20,30,14,2,2,1,9,17
-36,-2,19,7,-8,6,-8,-4
-6,14,3,-4,1,1,1,1
46,17,-9,-2,-2,2,52,39
17,-15,-24,-11,-8,-7,-6,28
-30,-14,-18,1,3,-2,-16,-61
-46,-36,19,-2,-4,-13,-16,-20
1,0,-29,8,-5,-1,-10,8
6,13,7,-17,-2,2,-9,-33
-4,19,27,25,-10,-2,0,2
3,15,-18,-8,22,7,44,46
25,9,-4,41,-47,-13,-6,11
-38,-80,-14,-85,44,0,-14,-32
9,37,2,127,39,7,-9,-21
-11,-84,-33,-62,14,9,5,45
-23,-23,-41,-39,-24,-8,0,-12
-6,19,29,-21,-15,-11,-18,-38
-10,66,53,6,-47,-10,-16,5
16,-9,26,26,53,24,66,49
51,-30,-39,-65,-1,-1,5,29
30,14,-20,11,-7,-13,-21,-29
-46,-39,18,-6,-18,-10,-15,-21
4,31,27,12,-5,4,0,-1
-4,27,9,-38,-18,3,2,-2
10,12,-13,56,-1,-7,-5,-3
9,-22,-17,40,-7,-6,6,18
-14,10,7,-72,12,5,14,39
-13,1,-49,29,-6,0,-20,-28
27,36,19,23,14,0,-2,-34
-3,17,36,-12,-5,4,15,30
10,-4,-12,-18,-39,-15,-2,29
-35,-42,-30,34,11,-7,-19,-69
-3,-20,17,-41,-1,-3,-11,-17
1,-7,15,-6,-10,1,-18,-7
-27,28,14,2,-7,-10,20,11
2,5,-40,-12,-7,1,10,30
34,4,16,51,-12,2,12,22
-55,21,33,0,35,9,-5,-13
-17,0,-16,-37,-13,-9,-8,-10
-5,1,-6,-40,-22,-7,-19,-20
0,-25,5,79,-2,-5,0,-4
7,10,3,-45,54,18,8,9
-9,5,-10,-43,-12,0,-2,1
-3,13,10,-7,-45,-8,14,45
7,-3,36,50,29,4,5,-38
44,-1,-51,-20,10,-3,-33,-66
-35,-16,9,-128,-51,-19,-17,25
-26,-19,-20,98,19,4,2,0
-8,22,-6,-7,15,11,9,12
4,-19,-21,-46,-19,-3,13,34
36,5,25,13,-37,-12,-10,-22
30,33,13,122,17,-3,-6,5
-17,59,-32,-90,25,10,1,-6
-73,-73,-15,-23,-10,-5,-19,-41
24,-30,17,-7,-13,-2,1,14
-1,0,-4,-19,-8,-2,-16,0
2,45,12,15,-34,-16,27,54
-1,-3,18,86,42,5,3,-23
95,5,69,-18,0,4,-10,-19
-26,-42,-128,-22,-6,-1,-17,-20
-11,-7,5,-2,-4,-5,10,-14
-19,19,-15,-7,-7,-5,-4,-13
-37,-72,74,10,-12,-3,-22,-62
-9,3,-11,-24,-3,-3,0,16
1,3,-10,-6,-24,0,-9,8
13,18,22,32,21,10,20,32
21,27,-20,-128,3,5,12,7
31,-2,27,127,26,-7,-28,-20
-13,1,4,-48,11,1,-13,-18
-99,3,-54,-35,-16,-10,-4,-17
-10,-63,-24,-29,-21,-11,-6,2
-7,7,12,-40,-33,-5,-2,-2
-11,15,6,44,-18,-3,-4,3
39,28,30,-9,13,9,12,30
-7,9,-2,-20,16,3,10,19
-7,-54,13,-13,7,-4,-15,-46
2,-55,-114,-11,-16,-2,-18,-10
-8,35,12,-13,-9,-5,-8,-12
-14,-48,10,7,-9,-4,-4,2
3,28,-12,-3,-3,-5,7,26
10,50,22,-128,-49,-8,17,7
-7,-10,-2,127,34,13,14,-22
10,21,22,4,39,-4,-37,-43
-55,-34,-4,-33,-9,-4,-26,4
-31,4,10,-28,-16,-6,3,9
1,5,-26,-27,-14,-2,-13,-9
8,16,2,28,-25,-7,41,40
9,17,22,-30,30,12,18,51
100,-15,-22,-20,-6,-3,-4,-11
-77,37,23,11,-4,5,-10,2
-29,1,4,15,9,7,18,-13
5,-128,-60,-54,-9,-13,-27,-17
64,-33,12,-11,-15,-19,-34,-17
-56,19,17,10,0,2,-4,-37
-17,22,7,11,7,4,6,12
2,10,-6,8,4,5,11,19
3,16,3,-47,-17,-1,7,12
2,6,59,28,-89,-20,-4,13
5,8,-24,123,115,29,15,26
18,-17,-39,-105,52,16,4,-4
-24,-39,6,-72,-23,-12,-10,-32
-15,-7,7,-24,-27,-5,0,5
11,15,12,-10,-22,-7,-5,1
8,-4,5,17,-11,-2,-4,7
9,16,6,-44,-12,-5,-2,-1
30,12,5,-23,-25,-11,0,-3
-19,-2,-6,83,-14,-5,3,4
24,24,-2,0,63,30,19,53
-19,-43,-9,-31,-12,4,4,-3
-26,-9,-11,-24,-12,-13,-24,-66
-2,-4,-5,10,-20,-7,-7,-48
13,-87,-119,2,3,-2,-30,2
-6,26,20,-18,0,8,11,3
6,13,32,8,-5,-4,40,29
9,19,-27,6,-6,-7,1,34
18,28,22,8,-1,3,5,-2
-6,39,29,27,-9,2,-25,-11
16,-30,-11,-1,16,2,8,-16
-93,-92,-18,-18,-18,-23,-37,-87
1,11,-13,7,2,-3,-17,-25
-55,2,9,27,-3,2,2,13
20,8,16,-80,-11,6,7,23
20,12,23,44,0,2,7,30
-15,5,-31,18,16,3,1,16
3,15,58,-16,-25,-5,1,-19
42,29,14,17,-51,-8,0,15
-9,-15,-65,36,113,21,-6,-40
9,12,-6,-48,-20,-8,-15,-14
-36,-89,-12,-34,-30,-8,-1,-5
-10,2,23,-17,-20,-9,-2,4
2,29,34,4,-53,-18,-2,2
6,12,11,54,50,18,7,8
-9,21,-4,-93,16,11,7,11
-2,15,42,-8,-9,-2,-2,-17
10,-9,-19,0,-15,-14,-3,-5
16,3,19,-93,-53,-10,2,9
-75,-46,-25,127,72,18,11,11
3,2,11,15,10,5,-6,-21
16,-3,-4,-19,-14,-18,-13,20
-11,2,43,-70,-28,-8,-9,-5
12,40,-24,82,24,16,52,-6
-24,11,-20,36,9,2,-9,-6
23,-103,-40,-5,-3,-11,-37,14
-53,1,22,-54,-7,-6,-17,-64
12,-1,7,-11,-11,1,17,-3
-14,-21,22,-4,-9,1,0,12
-23,20,-9,2,-6,5,16,28
23,17,34,13,1,5,14,41
66,5,-2,7,-9,-18,-15,-19
-51,37,2,-4,5,-5,-14,-27
-29,-81,-4,22,-15,-6,-7,-3
-10,-4,-36,-19,11,7,11,10
21,32,102,30,-2,6,5,0
28,-6,-83,-25,-8,-1,-24,-4
15,-24,-82,44,26,0,19,-9
-31,-5,17,-45,-14,-6,-4,1
-9,5,20,-57,-7,0,0,2
5,7,27,127,38,-3,2,-2
15,2,-12,-105,-27,1,2,7
20,3,3,79,32,8,3,3
-7,-3,-19,-84,9,1,-8,-11
-2,6,22,22,-14,-4,-2,0
-6,8,41,-128,-100,-30,-9,-6
-17,-18,-14,127,102,9,2,-7
6,6,-32,-105,9,8,8,7
13,-33,-74,-66,-25,-5,-19,12
-30,0,23,-16,-22,-9,2,4
-12,-2,16,-1,-8,2,9,-27
2,-63,13,1,-5,-1,-18,-29
6,31,32,16,2,4,13,31
4,56,-71,-2,-4,-8,-13,34
1,1,-3,5,3,-7,-18,-26
12,-113,16,5,-7,-9,8,-102
-61,-5,15,7,-1,5,-10,13
14,48,-9,-15,-3,17,37,63
23,16,-10,30,-12,-21,-30,-18
-17,11,112,37,39,2,-24,-78
-20,-16,-75,-10,-5,-3,-11,-36
10,-4,-29,-47,-37,0,7,29
31,1,15,87,22,6,12,43
4,11,29,16,50,15,57,48
-17,-26,-28,-16,-4,-4,5,0
6,28,-11,-26,-24,-16,-22,-10
-18,20,36,-62,-67,-13,-1,2
20,-15,21,79,81,15,8,2
78,-12,17,-58,6,8,-14,-18
-85,-8,-118,-21,-17,-6,-27,-16
-15,-36,2,-26,-19,-6,-5,1
14,8,38,-17,-13,-7,2,7
10,9,38,10,-53,-10,-2,-2
14,7,-9,104,95,22,12,5
8,40,49,-15,-8,3,6,17
-14,-4,-10,-12,-21,-17,-6,-16
-19,-63,-27,-47,-40,-22,-30,-24
-14,4,-6,78,37,11,-2,-13
15,-4,2,-1,1,-1,11,3
60,58,6,-2,0,1,-3,11
-28,-11,11,-39,-18,2,-7,-41
-20,16,18,-15,-33,-3,15,48
12,26,-8,127,69,15,45,44
44,-55,-18,-60,-9,-12,-18,-31
-82,-32,-8,-19,-16,-10,-22,-76
-4,-41,18,-11,-12,1,-4,1
-35,6,6,3,-4,-2,-2,13
23,15,2,4,-4,-3,3,16
9,27,32,-105,-66,-22,5,28
-8,-11,-8,127,64,13,-8,3
-10,3,-1,-44,42,16,1,-22
18,17,-65,-22,-8,-7,-6,-10
11,-17,23,-14,-16,-12,-13,-23
12,-8,-3,-15,-16,-4,1,4
-27,-28,8,-4,-13,-6,-10,-4
1,23,-9,3,0,0,2,5
7,9,-7,2,3,1,9,33
9,12,1,-88,-16,-2,8,3
43,49,67,122,-19,7,3,-39
-29,-44,-67,-25,71,5,-21,-65
-14,-45,13,-5,-10,-4,-4,3
15,16,-23,-21,-9,-1,0,20
-43,16,18,-20,-12,-5,7,16
14,-24,31,-8,-7,-5,-1,4
12,11,15,-3,-5,5,-9,-4
14,-24,31,-8,-7,-5,-1,4
12,11,15,-3,-5,5,-9,-4
5,8,20,3,-7,-2,-4,5
3,2,-4,2,3,-2,-1,2
