Channel_1,Channel_2,Channel_3,Channel_4,Channel_5,Channel_6,Channel_7,Channel_8
-2,2,-52,20,-24,0,14,-22
22,5,-4,82,2,-3,-38,3
-4,-29,-30,-54,27,3,-23,-1
39,10,22,-16,-13,-7,2,-49
-128,24,17,-40,-54,-5,7,-20
-17,-27,-36,40,33,-3,-5,94
5,-3,22,-4,4,5,4,24
-1,28,17,-14,-4,-3,-14,-128
-22,-33,5,-14,-25,-11,-37,-45
-8,-4,-25,-6,0,1,-2,27
10,51,3,44,28,21,48,127
-2,-45,10,62,-56,-6,15,32
-42,-27,-1,-109,-6,-15,-20,-33
-3,21,14,-22,-9,-3,43,26
0,32,13,0,-13,-2,6,33
10,20,5,-9,-9,5,5,-2
1,3,13,31,23,11,2,-17
-14,44,21,-2,4,4,1,18
13,-81,-2,59,-19,-11,-6,30
16,-45,-59,-17,29,1,-4,-21
-21,-27,15,-27,-62,-8,-14,-88
-35,-9,-3,1,-6,-7,-19,-85
-10,16,13,33,-13,-9,0,15
11,63,19,54,-81,-7,-12,-48
35,-21,42,17,112,25,84,43
39,-56,-41,37,-14,1,-15,-31
-37,-26,-28,-81,11,0,-19,-48
-4,33,-6,-20,-22,-6,-1,17
42,12,28,-16,-2,0,10,43
48,-25,4,24,1,-10,-48,-128
-62,-26,2,4,-4,-7,-37,-37
10,17,-7,37,2,0,11,59
1,27,8,-60,-3,6,31,87
-11,-16,-2,4,-14,-18,0,-14
-28,32,13,-35,-9,-6,-17,-104
31,-15,-29,85,18,7,13,22
23,23,18,6,-10,3,5,-14
55,-12,-2,34,19,-8,-73,-76
-74,-59,-38,-9,10,1,3,-11
-45,-25,-31,-74,6,-3,31,34
-16,-38,-7,101,-5,-1,7,34
15,22,-1,-6,15,1,1,-17
36,-1,6,-17,-19,-5,-11,1
-27,14,19,-8,-16,-1,-1,6
-1,14,30,-6,-9,-10,9,11
5,-5,-8,-1,6,-4,0,0
-8,-7,14,30,2,6,2,23
4,-11,3,-64,-12,5,16,20
16,38,14,127,-22,-8,-6,4
1,6,-29,-74,27,7,23,-26
-24,6,17,-117,-35,-14,-33,-102
-56,9,-10,90,16,-9,-4,15
45,17,6,75,-8,-12,-5,28
-37,5,-19,-55,-15,-5,15,34
25,18,11,56,57,23,33,58
28,-50,-1,-44,-34,-10,-10,-11
-13,-8,-5,-21,9,-15,-36,-69
-22,-18,-40,119,-12,-12,-4,-11
25,-2,-31,-74,-1,2,9,32
17,-10,11,-5,0,-4,11,54
-77,18,-24,-33,-20,-3,-1,-30
-6,18,31,13,-14,-14,-34,-49
-22,-28,-4,42,-15,-5,-2,3
69,13,0,28,64,15,-12,-26
-12,-23,34,-12,-9,2,14,51
-17,47,21,-99,-25,-6,17,46
29,1,6,127,-47,-15,-38,-88
-4,-34,-5,59,73,18,-4,-44
7,11,-30,0,8,-4,1,5
-35,-27,-21,-29,-15,-5,-6,-5
-19,-4,24,-20,-16,-11,-20,19
-9,-26,0,-10,-6,2,11,12
44,48,-9,-18,-9,-3,15,27
-22,-44,25,-29,-18,-1,2,-5
73,3,23,32,6,-1,1,-6
-18,-24,-11,-16,-3,-9,-12,17
-8,23,-60,13,12,2,2,1
-16,-11,27,10,-56,-9,-1,-13
3,13,2,22,68,14,23,90
-16,32,19,30,20,7,6,34
-4,-3,1,-27,-34,-9,-33,-123
63,-1,30,2,-24,-16,-36,-61
-7,-20,-4,-118,-11,-5,16,13
-8,-17,-20,108,70,16,18,29
5,8,-28,-14,-8,-2,8,46
-15,55,31,-15,-13,2,6,29
-4,-35,41,-27,-65,-19,4,20
16,57,-121,54,108,27,10,-5
-13,-32,-17,-18,-2,-11,-30,-60
18,-46,28,-4,-17,-5,-9,-1
2,13,22,1,4,-3,-7,-6
49,14,2,-2,-7,5,9,23
-52,14,11,-48,-42,-7,22,34
-18,25,25,127,-15,-13,5,9
30,-18,-49,-73,69,11,-23,-46
68,-18,-19,-50,-16,-4,-25,-18
-33,-6,8,-28,-20,-1,12,28
12,9,12,-38,-25,-17,-3,2
-17,10,-44,119,6,-1,-31,-30
-4,0,-6,-56,13,7,12,-9
-3,-2,-3,-47,2,1,7,-37
29,20,4,7,-2,4,-26,-74
-47,6,4,6,-8,-9,-3,7
7,31,5,-102,-47,-10,14,43
86,-19,59,121,25,-3,2,45
-5,-45,-33,42,45,20,-1,22
-44,-36,-87,-63,-13,2,-5,6
-10,33,-8,-16,-8,5,10,-30
2,24,37,-76,-62,-17,9,3
27,23,15,127,71,1,-20,21
15,-2,41,28,7,1,-18,-56
-33,-29,-36,-9,4,-3,-19,-65
-10,7,-41,-64,-16,-4,2,22
6,-30,-9,33,-1,5,16,25
18,2,1,-12,-5,-6,13,28
-17,13,36,10,-19,-7,-6,9
24,31,14,78,10,-4,-26,1
-59,-5,-6,-78,1,4,-30,-40
-5,-29,-2,34,-30,-5,33,69
13,-54,-38,92,33,-2,0,-67
-20,-7,-7,-53,2,6,-29,-78
-30,-29,-5,-10,-17,-13,-22,10
-7,19,11,-25,-18,-5,-3,1
11,6,-44,-48,-17,-4,23,60
41,23,20,24,-21,-7,3,20
12,20,-13,14,34,11,-11,-5
-22,-6,22,-31,15,5,2,-1
1,3,5,-7,-10,-6,-6,-4
-15,-33,-30,-8,-8,-6,-6,-33
2,3,-34,-6,-9,-2,12,18
10,-1,21,-2,-11,3,-1,-4
20,11,12,18,10,0,-3,19
14,24,6,-68,-46,-2,-8,15
-20,-45,-17,127,25,2,30,1
0,-5,-10,-35,68,24,28,66
-16,3,1,-45,-25,-12,-11,-48
8,16,29,-21,-14,-4,-32,-53
-2,-20,-35,-16,-35,-15,-3,74
-19,-25,-17,-11,1,-4,6,-31
3,56,17,-44,18,5,3,-19
-1,-50,13,12,-28,-4,-17,-5
-12,-54,-31,8,5,-12,19,-19
-23,-23,-58,-5,15,-2,-2,19
37,-16,27,-39,-13,1,14,41
15,41,-31,58,-12,1,17,31
0,-47,18,21,13,6,-16,-128
-107,-22,14,-2,-1,-1,-43,-54
4,32,-6,-128,-77,-23,-21,-8
23,-1,-3,127,103,14,20,35
5,2,-2,-90,6,5,9,27
31,23,-2,-25,-10,-1,8,35
-25,-16,13,-7,-15,-4,-8,15
-17,-13,2,-19,-17,-14,-13,-15
10,3,16,25,-19,-1,-6,-37
-10,2,11,-45,-21,-5,-2,16
-21,19,-46,37,-7,-1,-4,26
26,19,15,20,37,22,-2,-19
37,-44,18,-15,-6,-7,1,13
-76,-25,-34,-14,-15,-7,0,-60
15,31,30,6,-36,-1,16,14
-8,-17,-6,24,34,2,-25,-37
23,37,-50,-27,-8,-4,-21,-26
-83,-22,-9,-39,-26,-15,-6,6
4,-19,12,59,1,3,18,52
11,35,7,36,19,13,16,6
48,28,19,-78,-10,-2,-26,-64
-38,20,24,93,-41,-9,-40,-22
-8,4,-9,-8,61,8,45,23
9,-13,-37,-22,-12,-6,1,0
-28,35,13,-24,-14,-6,18,50
-15,-22,20,2,-20,-2,2,8
76,37,56,-7,11,3,-36,-88
1,-9,-49,9,-2,-6,-17,12
-19,-1,-11,-10,-11,-8,-4,-60
-18,-82,-6,-12,-8,-4,3,19
-4,-2,4,-18,-3,10,22,52
16,2,38,-7,-43,2,21,66
1,2,-20,87,44,0,-6,3
10,39,10,26,53,4,-36,-87
30,34,-5,-106,-32,-11,-14,-66
33,-11,-21,90,17,6,-4,18
-89,-18,2,-33,-5,3,44,79
3,-25,32,-13,-10,-1,2,53
9,8,-28,-19,-13,-1,17,-13
-7,6,17,4,-41,-14,-17,-6
13,9,-3,34,8,-2,-28,-58
-26,1,11,-74,30,8,-15,-69
2,-17,3,0,-38,-11,2,11
2,-17,-44,81,41,1,0,13
0,25,-7,-31,2,7,-4,18
-11,15,-9,-17,-20,-12,8,44
-2,-52,9,-30,-29,-13,-5,-52
-5,14,20,-13,-29,-8,-18,-52
-14,-19,-33,93,54,13,-2,9
16,46,-15,-15,5,10,33,65
-1,42,21,-56,-24,-16,3,54
58,-94,41,51,-10,-6,-21,-46
-86,14,-87,-40,9,-4,-39,-91
0,-21,10,4,-4,4,27,-8
-11,32,37,4,2,10,23,53
13,10,-63,-18,-17,-20,6,22
4,-19,41,-21,-47,-12,-42,-14
-5,-3,3,102,54,13,11,6
37,13,-9,-69,-11,-9,5,-9
34,9,-17,104,23,8,-23,-91
-57,-18,-2,-106,8,8,2,29
-14,-20,4,-48,-22,-14,-5,3
21,1,-10,5,-17,-5,3,6
8,60,30,-50,-41,-8,17,30
18,-43,-31,127,26,4,8,5
38,41,0,-56,34,17,-9,-22
-24,-23,-28,-41,-20,-2,-11,-16
-49,0,3,-5,-18,-11,-7,-15
7,21,9,-10,-8,-2,10,85
36,7,42,3,-4,6,22,34
-1,-31,-33,-40,-17,2,-16,-128
-31,-17,19,42,-22,-24,-43,-37
-12,-1,-10,15,35,-1,-9,19
13,10,-2,9,3,7,22,41
5,-5,-15,2,-2,11,16,-2
-7,-6,15,29,-11,2,-14,-8
-5,-9,13,-22,15,-6,-3,25
17,10,-12,-4,7,3,-6,29
-2,42,16,-21,-1,1,4,-73
8,-93,30,3,-43,-8,16,78
21,17,-20,127,48,9,13,26
-5,-38,-8,-43,15,4,-9,-51
-62,-13,-33,-48,9,-5,-41,-68
-50,-10,-24,-1,-17,-6,-12,-78
-10,-8,48,-16,-15,-5,2,21
23,35,-15,1,-67,-9,35,127
16,7,-14,-26,62,21,44,88
-15,-69,-64,31,16,-8,-60,-128
0,-13,3,-20,-7,-15,-29,31
-2,15,6,-10,-10,-1,14,64
3,27,12,-8,-6,2,11,37
1,13,20,0,-3,2,-5,14
1,-10,-11,-12,-13,-6,-2,-13
0,5,-13,31,-21,-6,4,-34
-24,-3,3,-76,-4,-5,1,3
8,7,15,106,40,18,24,41
21,49,9,-1,39,16,14,-16
56,-39,-52,-23,-19,-15,-32,-57
-61,-87,-6,-13,-23,-22,-17,-21
14,9,22,-12,-17,-10,7,12
1,27,-6,5,-6,6,-4,-5
7,-4,12,-4,1,-6,-9,-14
-17,12,32,-128,-88,-19,-28,-11
-4,50,6,127,86,21,84,107
40,-10,-33,-128,33,21,34,49
48,-24,-53,-30,-27,-5,-46,-128
-87,-101,-15,-18,-24,-14,-53,-24
-37,-23,-38,-10,-19,-20,-21,-50
8,36,21,10,-5,-6,12,36
8,-28,22,54,-15,2,14,31
-2,24,-3,-38,23,7,6,23
7,12,25,10,5,-4,3,5
-5,-9,6,7,2,0,-1,1
28,1,-11,1,-2,-3,0,12
-50,10,-10,2,-3,-2,2,-3
-7,2,9,5,1,1,-7,-17
0,-6,-1,6,5,-1,-6,-20
-3,-8,-5,-4,-2,-4,-7,1
-16,7,26,-128,-101,-23,19,85
3,39,15,127,89,30,74,124
26,-18,2,-128,33,31,-26,-98
84,-6,-76,-29,-47,-16,-86,-128
-88,-76,0,-23,-48,-50,-34,17
-19,44,1,-6,-22,-5,12,55
18,5,29,5,-9,6,19,50
21,21,33,-14,-26,-4,9,30
16,6,0,121,19,16,12,15
10,20,25,-63,45,11,15,10
10,16,9,-55,-36,-5,2,5
-5,-20,-41,127,28,-1,3,-8
-16,-8,18,-71,10,1,-6,-4
-8,-11,-23,-24,-3,-6,-14,-12
-5,-6,18,-6,-8,-7,-1,-21
4,-4,-29,-48,-16,-4,10,29
27,30,8,0,-26,4,23,67
9,-8,-10,58,22,-14,-36,-74
-75,-96,-68,-38,-2,-10,-34,-128
-23,-88,7,-4,-1,-6,-14,2
21,60,9,4,-2,8,9,23
-19,38,43,-74,-30,-6,8,-8
19,13,2,127,-16,-8,3,43
-9,11,-43,-62,44,22,4,44
59,-7,-3,-16,-11,-4,2,-24
-40,2,5,-10,-14,-3,-11,-19
-7,-17,2,-8,-5,4,1,30
22,41,19,-1,-20,9,35,86
-24,-30,-21,-6,8,-6,-5,-29
-33,-44,-8,35,-10,-18,-73,-128
1,5,-2,-27,14,-4,-5,38
28,60,67,17,28,17,15,45
-20,-25,-33,-30,-9,-7,9,30
-11,-73,-24,-32,-27,-8,9,5
16,34,-12,92,10,-3,-16,-9
32,-16,16,91,-19,-2,36,57
11,16,10,-128,45,9,0,18
-22,14,0,-5,-2,9,-13,-90
-20,-7,27,-7,-14,-2,-9,-24
-28,29,55,-60,-105,-18,1,-1
29,30,22,127,127,41,65,127
64,-1,11,-58,-7,-9,-7,-33
-36,-54,-96,-51,-33,-13,-89,-128
-20,15,24,-22,-23,-13,-11,10
-11,11,20,-8,-19,-6,9,46
10,5,9,13,-5,5,14,34
15,18,6,-13,1,2,-7,-28
-32,59,18,-24,-5,8,22,53
-12,-32,-10,127,-3,-14,57,74
127,-76,-27,-63,-1,-18,-58,-73
-128,-41,-1,-12,-13,-11,-53,-128
3,-4,14,4,-7,1,0,35
14,29,28,6,0,4,10,29
-3,19,7,-57,-31,-6,14,39
-3,2,15,-23,-42,-5,13,14
32,17,-35,78,110,25,-4,-42
24,21,16,-33,-6,-3,-9,-2
-7,6,15,-18,-20,-13,-8,8
-10,-20,-21,-16,-19,-9,8,9
-20,31,30,-90,-55,-12,4,-3
0,12,-54,124,16,9,6,-20
22,-2,-4,-40,61,13,-6,-25
-13,-76,-13,-33,-24,-15,-23,-47
-61,-12,33,-7,-16,-7,-2,8
2,20,-30,-62,-24,-6,6,13
20,68,27,-67,-125,-15,19,47
41,-10,-17,127,127,44,21,9
-16,-97,-7,-87,-11,-6,-42,-73
-19,-4,-43,-29,-24,-9,-14,-36
6,15,13,-13,-20,-4,4,10
-6,27,26,-3,-12,4,17,12
-23,0,6,6,-5,1,5,22
-10,-8,-3,24,-11,-6,-25,-29
66,49,8,-37,2,-1,29,70
40,4,5,31,7,1,34,17
-86,-19,-23,2,0,1,-15,-128
13,69,16,48,11,18,-4,23
8,21,6,-58,-8,-28,-41,-109
-48,-128,-13,21,-4,-11,-25,-13
-30,60,-11,-8,6,2,11,37
6,25,7,-31,-4,4,24,42
25,6,30,20,-37,-8,-2,15
1,3,11,75,39,12,-12,1
8,0,5,65,43,17,11,15
-6,-5,-49,-102,-8,2,0,-10
-7,71,20,-52,-17,-5,2,-7
-9,-67,33,116,-65,-18,-14,-61
-15,-20,2,56,107,7,-19,-49
-10,7,4,-95,-64,-13,-8,37
1,-4,-37,64,33,5,28,15
5,4,17,-53,-26,4,5,0
4,8,75,127,-16,-13,-13,5
8,-8,-8,-120,33,5,-4,-12
-27,-13,-72,-37,-11,-3,1,23
-3,32,20,-17,-11,-7,2,22
9,-4,22,-128,-85,-23,-14,-42
-10,-42,-8,127,32,14,-3,-5
75,-44,7,0,59,11,25,-30
-75,9,3,11,-11,-11,-24,-31
-11,-20,-31,-24,-23,-13,-19,-17
22,33,-1,-15,-11,-4,1,6
-2,11,18,-17,-7,5,-3,39
12,4,16,-17,-18,3,62,97
28,14,-6,54,26,16,41,44
3,14,19,-48,6,-7,-74,-128
30,0,-32,27,4,-5,-23,0
-2,2,-21,-68,-36,-13,0,50
-49,-12,21,48,-38,-12,-11,11
0,-4,-4,110,28,7,15,22
8,-51,-16,-128,57,23,41,23
-44,7,2,-25,-22,-5,-15,-37
-3,1,60,-87,-38,-14,-5,25
33,-31,-67,21,-14,-7,-3,-10
8,17,-3,100,3,-7,-10,-13
-11,24,-15,-52,9,2,3,27
-21,-59,19,-3,-5,3,2,-11
13,1,18,3,-14,-5,-4,6
31,1,7,8,4,6,4,-17
4,-4,9,-98,-45,-18,-20,-29
-9,-23,-55,76,54,4,5,14
-13,3,27,58,5,2,11,17
15,16,11,-91,0,4,-3,-18
-13,-13,15,74,-4,0,-14,-31
35,30,5,-30,-2,0,-5,39
-2,-19,3,15,-17,-22,-9,-33
22,68,-20,-51,26,3,-4,-44
-38,-128,-42,29,5,12,10,13
1,-14,-7,-1,-4,-4,-17,23
-10,38,30,6,-10,-7,-1,34
-4,22,13,-1,-21,2,21,-90
8,49,29,-55,-28,-8,3,20
-7,-40,20,127,27,13,25,13
38,-18,-84,-39,36,5,-18,0
-20,-14,-24,-26,-11,-9,-23,-25
-20,-33,-43,-29,-22,-14,-16,-27
-2,15,25,-17,-15,-1,3,16
1,22,7,5,-5,2,6,17
5,19,26,-45,-28,-2,6,16
-5,6,8,-14,-71,-16,2,13
6,-23,-79,127,127,54,26,18
12,48,25,-52,-6,8,2,-12
8,-24,-47,-32,-31,-19,-24,-62
3,-60,-9,-17,-22,-19,-21,-10
-28,-40,33,-7,-18,-11,-17,-8
68,13,16,0,-5,6,20,41
-21,-26,-13,0,-15,-9,8,24
4,27,14,-43,5,3,-11,-12
-18,20,-9,75,-6,1,-30,-12
-19,18,23,-69,23,4,6,-6
-17,-38,-17,55,30,-8,5,-12
27,15,-13,-9,-4,-4,3,2
12,-4,-25,-7,-13,-1,-6,-51
2,-3,32,0,-4,2,-32,-91
-8,-21,-9,-4,-5,-5,-3,45
-4,1,2,-1,-2,-5,8,17
0,21,22,-59,-21,-6,-13,-10
17,26,-11,44,-24,-9,2,12
15,5,4,12,61,16,23,8
-15,-122,-10,70,-3,-9,-22,-19
-43,-12,-15,-26,-2,-2,1,1
4,19,-8,20,-40,-6,0,0
7,15,49,113,-47,-9,1,0
17,19,-11,-59,97,25,16,12
7,-4,-26,-46,-13,-6,5,17
15,4,-13,-8,-13,-10,4,30
-14,-7,11,3,-21,-10,-13,-42
-15,-14,-13,-31,-25,-3,-6,-3
-27,-67,28,54,18,2,7,32
21,62,18,16,7,4,8,-18
19,39,16,-41,-15,-15,-61,-59
0,-74,-94,122,-7,-10,1,9
-15,-25,-6,-128,67,18,29,-2
-25,-25,10,-19,-11,0,-32,-42
-41,11,-35,-12,-19,-3,-19,0
-11,-47,14,-2,-10,-8,1,14
18,12,2,4,-7,10,20,22
-72,36,30,-35,-17,-2,5,33
19,-4,28,43,21,-8,-16,-7
100,35,-35,-21,15,4,-3,-51
-67,-41,-9,-16,-14,-13,-39,-109
-36,-17,3,-7,0,4,10,19
2,49,-16,5,-1,10,23,49
-2,-39,-10,-94,-13,-9,-1,24
9,5,4,88,-50,-19,-4,-3
6,22,20,14,84,20,17,28
3,11,5,-28,-1,7,10,3
-2,7,-6,77,-15,3,-23,-23
16,-1,-17,-84,59,17,4,13
-26,-117,1,-95,-45,-10,24,21
-42,12,-6,69,-26,-12,-15,-34
-5,9,-35,66,44,7,-8,-28
17,20,2,58,33,9,7,28
24,19,64,-5,-23,-12,7,42
-44,5,-40,-20,-5,3,4,36
26,-40,43,-10,-4,1,25,-3
2,6,-10,11,-15,1,-10,-74
-57,-26,10,1,-8,-13,-19,-7
-9,-28,-5,-107,-34,-12,5,48
7,5,-3,111,74,15,21,13
8,3,18,-47,-1,3,-19,-44
-18,3,-44,-5,-15,-24,-30,-21
-2,-39,10,-6,-5,-4,-7,-10
-17,21,-15,0,-11,-4,8,26
-9,-12,14,65,-17,11,28,46
9,-7,-32,-60,30,-1,-6,-27
57,-53,6,-35,-7,-6,-24,-52
-54,-13,16,1,-3,-2,-17,2
21,26,-3,3,-8,1,5,9
-19,11,-11,6,-1,3,30,19
1,-5,3,-56,-9,2,17,29
-11,35,25,62,-21,5,2,7
38,14,-15,-17,35,0,-9,-3
-21,-85,-11,127,-7,-15,-37,-66
-2,38,-7,-128,-4,1,10,6
9,44,34,-70,-49,-5,13,21
-9,-14,-82,127,72,8,-2,5
32,-7,2,-64,54,16,-6,-1
31,-4,-10,-83,-28,-10,-16,-3
-20,-35,28,-46,-38,-19,-16,-39
-22,10,14,19,-21,-8,2,16
-7,-7,7,31,-14,-4,2,21
7,12,-2,-49,-26,5,6,28
12,18,-6,8,53,11,8,28
5,9,-14,21,-2,-8,9,20
-2,17,-11,-6,-8,-13,14,62
-29,27,28,4,-5,0,-32,-60
91,-40,-62,-8,-10,-8,-1,-50
-56,-75,-51,-14,-17,-21,-49,-70
-47,7,4,-2,-2,-2,-1,-16
4,28,27,1,2,0,-7,12
-5,-39,-27,-4,-7,1,32,32
13,21,20,7,-24,4,31,47
7,3,20,1,37,5,3,11
28,-1,-70,-25,0,-8,-27,-59
10,7,10,17,6,2,2,25
-4,-38,-30,-60,-27,-8,-7,-2
-17,27,23,43,-71,-16,3,5
24,19,7,78,108,44,32,48
46,-27,-10,-33,30,-2,-17,-38
-62,8,-13,-33,-21,-13,-33,-55
-2,21,27,-28,-44,-4,1,15
28,5,-9,84,4,-9,1,1
9,-86,20,87,35,8,-1,-8
-16,33,-83,-90,4,0,1,-12
-17,-6,-3,-63,-32,-4,-3,2
-12,-22,22,66,-8,-4,-21,13
16,39,12,-128,8,13,20,19
19,7,-13,85,-8,-5,4,8
0,-7,9,32,4,2,0,-3
-33,-42,12,0,-13,2,-1,0
4,1,12,28,-1,5,-14,-8
25,16,-20,3,31,1,3,-10
-27,-17,-5,-32,-14,-17,-15,-12
-17,-9,-4,-1,-7,-6,-6,-2
11,13,6,-14,-3,2,5,41
65,66,42,20,-8,6,22,54
-1,8,-26,-29,-10,0,-20,-91
-24,21,14,-58,-15,0,-34,-60
-32,-59,-10,97,10,-6,26,72
31,-4,-35,-56,1,-19,-33,-31
20,-90,28,83,10,-3,-5,-22
-5,24,24,-23,7,11,8,19
-7,22,-22,-103,-33,0,14,28
-6,-1,1,127,-1,7,25,60
12,17,-27,-87,37,15,6,43
7,39,22,-20,-4,-6,-19,-64
9,-48,23,-35,-53,-16,-21,-29
-19,-5,7,64,53,5,6,20
11,-12,-81,2,14,7,24,29
34,-24,-41,-9,-15,-6,-1,20
-80,-14,27,-25,-15,-4,-18,-27
9,13,3,-128,-73,-23,-15,-29
-6,-10,15,127,71,6,4,15
5,10,-6,-122,23,16,16,18
-9,52,-6,-54,4,5,-3,-24
-7,-48,12,-12,-17,-6,-7,6
1,-5,7,8,-17,-10,-6,7
-10,5,-30,-37,-16,-4,-4,-30
-9,13,10,14,-35,-10,-3,12
23,18,-29,124,62,0,-12,-37
70,-73,3,0,5,11,25,48
-32,-9,-12,-22,-9,-5,38,51
35,41,5,-26,-15,-6,-33,-75
-18,1,11,-5,-11,-11,-28,-92
24,-5,12,0,0,-1,-1,21
-57,12,-5,2,-1,3,12,39
20,26,24,23,-21,4,21,45
-8,14,-5,-16,27,6,6,-27
-4,-33,5,15,12,-3,-15,-29
-12,-54,-92,4,-20,-18,-27,-41
-8,-34,-11,-98,-49,-15,6,25
-2,32,10,91,43,15,-13,44
-2,21,14,-109,-21,7,46,-13
-22,57,-16,127,-2,-12,2,23
67,-47,18,-41,52,10,-7,11
14,-27,-8,-42,-23,-3,-35,-68
-29,20,-4,-37,-30,-7,-8,-3
-9,-3,-5,-5,-13,-5,6,16
-3,13,7,-25,-14,-9,7,19
-13,-10,40,48,-83,-21,-5,6
40,21,5,-8,105,33,16,21
-17,13,35,-29,24,14,6,13
-9,-33,-128,-21,-16,-1,3,-2
0,4,-24,-15,-26,-11,-4,19
7,18,13,-6,-24,-23,-24,-14
-17,-84,14,3,-9,-8,-32,-128
-29,18,15,4,-5,0,-7,7
3,7,8,8,4,3,7,17
16,52,-2,11,7,21,46,71
12,27,-3,-47,-18,-10,-17,1
70,19,-1,49,14,-15,4,-42
-5,-44,-9,15,10,-1,8,-3
9,-24,23,-13,-27,-4,-11,-26
-4,13,-21,-26,21,4,2,14
-14,14,-33,26,7,1,8,32
25,33,19,-21,-6,-1,-10,7
-79,17,14,-71,-40,-7,-10,-41
-18,-24,-2,41,-2,-4,4,21
8,40,11,9,29,6,-5,-29
-22,5,-2,43,22,4,-4,-1
50,-28,-6,0,-42,-3,9,35
16,-35,42,-5,42,2,-3,24
-32,-23,-62,-55,-11,-5,-13,-121
-10,64,36,120,7,-1,-6,0
8,-67,-6,-95,-12,0,5,23
15,34,35,127,-54,-13,-5,18
-6,33,-14,-92,77,10,5,-5
-2,25,12,-14,2,2,-8,-15
-2,-23,-33,-6,-12,-6,-4,5
-19,1,15,4,-11,-3,3,5
16,24,14,-48,-16,5,26,56
58,32,34,58,-20,4,7,36
34,-18,-83,55,45,0,-5,-31
-84,-53,40,-83,-2,-18,-41,-71
-47,-37,-28,-23,-16,-6,-21,-74
6,13,12,-8,-14,-4,-1,25
15,26,-3,3,-3,2,15,27
-3,14,-3,5,-1,4,14,49
-22,-14,-6,-5,-17,-5,42,35
34,10,-2,-7,11,-2,3,-53
-20,-69,32,24,-46,-20,-32,21
-8,13,-44,51,74,16,-10,-6
13,38,3,-6,7,9,16,27
2,-53,28,-2,-7,-1,0,0
-33,-29,-34,-32,-13,2,-9,2
10,26,-46,-3,-21,-7,5,-15
24,31,24,-4,-2,2,-12,-42
-122,-53,68,-26,-2,-3,-23,-28
25,-33,-128,-83,-4,-13,-9,12
11,9,23,32,17,2,11,-1
11,33,8,-15,21,11,12,19
10,12,5,25,-3,0,5,12
3,12,7,2,-8,-4,-1,7
-3,40,48,-128,-107,-31,8,34
-8,-7,-7,127,86,20,12,41
15,21,-71,-128,30,25,33,-19
-10,-128,1,-45,-36,-16,-44,-96
-11,-6,-33,-19,-34,-27,-31,-26
13,12,35,3,-15,-2,8,24
-11,1,5,2,-9,0,6,17
-4,19,14,-10,-6,2,7,7
49,43,42,-90,-61,-12,18,83
-9,-11,3,127,115,20,10,-6
-40,-46,-49,-39,2,2,-32,-61
-53,-38,14,-17,-8,-7,41,92
26,33,37,-14,-13,-4,1,-14
-35,-46,-91,-9,-14,-21,-18,-93
32,10,9,6,1,-4,-8,-24
9,25,5,6,-1,-3,6,25
-5,-32,3,1,4,6,11,30
-11,13,14,-51,-4,7,14,25
5,29,36,28,-46,-8,15,51
72,-27,-33,103,96,10,-2,12
-76,-14,37,-32,2,-4,-31,-99
-7,-80,-27,-26,-19,-7,-5,18
-5,21,17,-74,-53,-6,11,10
-6,-32,-18,106,27,-3,-10,-3
-17,-2,-36,-39,15,4,-9,-74
3,53,13,-21,-22,-13,-3,8
26,42,26,-33,-39,-15,1,9
-1,15,45,127,4,5,16,36
25,-40,-15,6,90,22,13,33
-78,-66,-35,-104,-29,-9,-23,-67
31,-2,0,43,-12,-3,-4,-10
11,12,21,11,-2,-2,7,15
12,42,11,-29,-10,-2,2,19
-40,-35,-6,19,-9,-13,-7,22
25,34,11,7,0,3,7,27
23,1,6,3,-2,5,-3,-96
3,-77,-7,2,-3,-4,-8,-17
-42,16,32,-7,-4,-3,-23,-31
-19,11,-13,-7,-1,-1,-24,27
-6,34,35,-114,-98,-15,36,96
1,11,-56,127,127,56,81,61
99,-66,-66,-61,0,-11,-91,-123
-124,-23,-5,-26,-27,-18,-39,-32
-22,9,11,-17,-21,-9,1,33
2,16,8,-30,-15,2,11,-11
26,36,11,36,-9,0,18,31
1,-24,9,10,11,-7,6,31
40,10,13,40,1,-3,-4,-12
-8,3,-8,-38,0,8,1,10
-13,43,-12,-80,-20,-1,3,-13
-2,-12,29,127,-37,-19,-9,-24
21,-22,-53,-54,70,18,4,28
-22,-26,-29,-26,-13,-3,-11,-13
-13,8,-7,-51,-22,-9,-9,-8
9,15,10,82,-12,-5,-2,-20
5,-4,19,-110,-9,-1,3,10
-3,16,32,127,-7,-11,5,-7
5,27,14,1,40,22,4,-17
9,35,-8,-16,-7,-1,1,14
5,28,5,-24,-16,-4,5,50
16,-78,30,32,-81,-15,-1,20
23,18,-11,119,93,15,-18,-125
-38,6,-58,-128,3,-7,-25,-48
-36,-58,-4,-6,-10,-8,-11,14
77,29,25,1,-10,-1,15,44
-6,35,-21,7,-3,2,15,26
-2,-18,10,-5,-21,6,14,33
-9,0,13,-23,-38,-4,5,13
-5,38,9,119,93,12,-13,-8
59,-6,-35,8,4,-13,-10,-38
-38,-107,-46,-34,-20,-15,-16,-39
-47,5,40,-10,-12,-2,-3,5
2,25,-13,-7,-5,0,1,6
0,-9,17,-92,-46,-8,-2,21
1,27,5,114,-11,-2,7,27
6,23,-7,-29,70,20,15,-33
27,11,-29,-23,12,-6,-35,-78
11,-7,19,-19,-17,-13,-21,2
-31,9,9,-14,-19,-9,-5,-25
7,-16,-4,4,-5,-1,4,-7
5,13,5,-9,-12,0,6,15
-12,21,-10,-4,-5,-3,3,10
6,0,38,-128,-50,-12,9,33
13,12,35,127,4,4,7,59
49,21,-128,-128,110,27,13,-5
-51,-44,-14,-41,-12,-7,-28,-79
6,-21,-15,-18,-31,-15,-38,-62
-29,-1,38,5,-16,-3,2,11
3,34,12,7,-8,-2,7,22
10,16,2,9,-5,-1,7,20
5,-1,-5,9,-1,2,5,11
4,7,1,5,-1,0,3,10
5,3,-5,2,3,9,21,18
-27,2,4,-21,-15,4,5,101
-26,9,0,34,-61,-20,-11,-39
107,17,17,127,127,16,-15,-94
-38,-98,-44,-102,-42,-15,-38,-62
-47,17,-76,35,11,8,3,21
-27,-128,6,-68,-13,-8,-8,31
-20,-2,30,3,-9,-5,-5,-46
15,58,-19,-24,-7,5,13,23
-3,15,30,-119,-64,-18,-2,15
14,-3,11,127,34,8,14,34
8,20,-6,23,88,30,20,34
-11,11,21,-37,-7,-4,-1,-25
-11,9,-10,-17,-14,-5,-8,2
-2,-4,6,-19,-32,-5,11,38
26,13,10,127,-39,-5,1,22
31,-44,-46,-111,84,0,-14,-57
-38,12,-9,-22,-9,-9,-34,-54
-40,-50,-39,-8,-15,-7,-11,3
9,1,29,13,-9,3,9,15
10,19,14,14,-2,3,8,14
6,18,0,14,0,0,6,12
9,9,-5,10,2,5,6,9
-5,17,-2,4,0,4,12,31
2,19,40,4,-34,-2,7,9
1,12,10,50,80,12,-22,-44
8,-33,6,-19,-14,-10,8,-13
25,-16,-40,-5,4,1,-17,19
-14,-2,4,-7,-5,2,13,17
-9,61,11,-7,-4,-3,-8,-24
-11,-26,5,-5,-8,-4,-9,-19
-14,1,11,-120,-45,-16,-5,14
1,-13,-7,127,23,3,6,10
-1,11,-5,-33,29,23,18,30
17,25,47,-3,-1,4,2,25
29,12,-32,62,3,-8,-7,-15
-1,-13,13,-94,-33,-14,-15,-2
-86,7,-46,-62,-20,1,-1,-41
-16,-30,-20,101,77,9,-1,16
-12,-95,28,-41,-22,-11,-14,-33
17,55,28,37,-45,-18,0,18
-1,4,-1,-92,25,4,8,15
11,-4,4,109,-47,-3,-4,-7
33,19,8,-59,111,33,54,10
-23,-25,-23,-48,-23,-8,-28,-16
34,41,-13,-16,-23,-11,-10,31
-62,-2,20,-7,-10,-1,-7,-32
6,-9,3,2,-5,2,4,9
16,48,16,-1,-7,1,24,26
-4,-70,6,2,2,-7,4,28
71,-15,11,-2,-4,-14,-42,-46
-83,34,8,5,-1,-4,-19,-18
-7,-54,-5,5,1,1,6,-22
4,10,-3,1,-1,-2,56,73
-1,43,11,-1,1,4,2,2
-4,-6,8,0,-2,0,-14,-18
35,9,-9,-7,-4,-2,-12,-13
-3,-19,-7,5,7,2,-1,-15
-27,7,12,26,-18,-3,-1,10
-12,27,-6,-8,23,13,11,31
24,-24,11,-128,-86,-17,-5,20
-40,-25,-28,127,85,0,-15,-37
-3,6,21,35,54,12,4,-1
3,7,-33,-24,-16,-1,-1,5
-4,16,47,-27,-31,-10,-6,7
-4,-18,-6,-26,-95,-24,-6,-2
2,-5,32,127,65,24,21,26
16,22,-29,-128,84,30,14,9
25,8,-5,-53,-14,1,-4,-36
12,30,48,-14,-27,-5,-8,12
-47,-84,3,-10,-25,-20,-11,5
-42,-64,4,6,-14,-9,-6,1
3,-55,-7,6,-10,4,-16,9
4,50,-2,-9,-17,-7,-1,-38
-5,36,40,1,-2,-6,-24,-63
-28,11,-17,32,0,-1,4,51
70,6,8,35,29,16,21,32
70,40,-5,-12,-5,-4,-14,-42
-3,50,-21,-11,-3,-4,-9,44
-50,-128,5,-17,-13,-16,-5,-15
-71,13,20,-1,-6,7,-4,-45
16,32,0,5,19,8,8,5
34,14,-16,-8,-13,-17,-17,-40
5,-1,-8,-29,-40,-9,-7,18
-6,32,30,62,20,0,9,22
-4,8,-32,5,54,20,12,8
-27,4,20,-59,7,8,10,39
56,-27,-91,1,-22,-3,-12,8
26,14,67,29,14,-6,-8,-28
-50,-17,-5,20,-23,-8,-3,-34
-21,12,1,27,-2,4,-3,6
-3,-54,14,-70,-42,-13,-6,0
-3,-19,-35,-5,47,14,5,4
7,22,15,-43,2,6,5,7
2,34,16,-9,-29,-3,-4,17
-6,-42,7,36,-5,1,7,3
16,21,9,69,-6,-4,5,-3
2,6,-4,-82,-1,-2,16,45
-40,-74,-79,-41,3,-8,-28,-64
-89,34,-2,28,-3,-15,-53,-128
25,45,72,14,-7,5,17,68
86,20,-32,-20,-8,7,22,57
-64,-71,-41,-1,0,-13,-23,-14
-20,28,23,14,1,-1,-9,-57
-4,-6,5,-1,-4,-3,1,-4
-2,18,36,-111,-30,-5,2,7
-6,17,-4,104,-17,0,0,43
11,-17,-53,40,76,9,8,15
-1,-127,-28,-52,-21,-8,1,-57
-22,-11,-12,-27,-20,-3,-12,-19
20,31,23,-8,-14,4,8,50
6,18,6,24,0,-6,-4,19
-7,-4,-12,8,-1,-7,-29,-119
-22,17,14,-60,-14,-12,-21,21
-28,19,27,110,5,0,7,25
-5,-18,-15,-87,-4,10,14,17
-10,-34,-65,-5,1,1,-2,-9
9,-29,-19,55,12,-7,2,1
31,0,14,-77,3,4,8,14
-39,31,24,-128,-86,-16,6,17
-9,51,-18,127,118,22,20,42
27,-17,-20,-128,14,-6,-16,-43
-5,-79,5,-33,-21,-8,-32,-88
-22,6,-44,-17,-23,-9,-7,8
-14,19,6,0,-16,3,15,52
9,29,15,16,-10,-7,-6,9
50,28,-1,-24,-15,-7,0,-36
-22,-59,18,90,10,-6,-5,21
-35,-4,-18,-49,29,-1,-34,-24
-22,15,5,40,11,6,1,-28
12,35,5,7,-6,1,10,11
17,-26,20,-103,-18,-2,4,16
-2,-22,-24,127,0,-8,3,15
14,28,-19,-12,29,9,-2,5
5,27,13,-21,-13,-3,-15,10
-1,-2,9,-37,-13,-8,8,9
5,-5,20,56,-58,0,23,9
16,13,-38,30,58,3,-28,-120
-71,-33,24,-51,1,-5,-48,-83
5,13,-30,-3,-17,-6,-10,0
2,-45,-8,-48,-16,-4,17,31
-2,33,13,33,-1,3,10,34
0,-21,-12,-5,-10,-10,-2,9
24,-6,-26,100,-6,2,22,9
30,32,22,-77,21,10,4,29
8,5,26,82,-7,-9,-6,-42
-21,-11,3,82,14,3,3,-2
5,31,-32,-106,13,7,3,12
25,-29,-5,-9,-25,-5,2,18
-17,2,50,-125,-20,2,1,16
-7,10,8,106,44,12,33,28
-12,6,-50,-1,-12,-20,-26,-47
37,-30,2,-10,-18,-14,-40,-66
-33,13,-14,-4,-12,3,1,22
-13,-4,16,-38,-2,12,20,22
2,-10,9,39,-2,-10,-5,7
-8,9,-30,1,2,-4,-7,-14
6,10,15,10,11,6,-2,9
31,-8,8,25,1,6,22,64
-6,-17,22,-37,3,-1,-9,26
-2,15,-46,-11,-12,-6,-27,-128
-70,28,-1,2,4,-4,-3,-3
3,-38,-4,-40,-10,-4,1,9
-7,-22,1,65,-7,2,10,27
10,29,18,-20,-9,0,0,17
-4,30,53,-92,-79,-21,-7,14
16,38,19,127,127,26,3,3
5,-57,-128,-118,-4,-1,27,-2
4,-82,-29,-60,-34,-14,-25,-38
-32,9,38,-68,-34,-11,-10,-10
6,15,40,-17,-80,-17,2,12
5,19,-8,113,97,22,6,-8
-12,20,14,-54,15,2,-14,-18
1,13,3,-54,-21,-14,-9,10
0,12,34,127,-57,-11,-4,5
3,-12,-1,-128,53,17,7,12
16,3,-128,-25,9,8,6,2
-24,-38,-8,-7,-17,-8,-4,-7
24,10,39,6,-10,-9,0,2
-49,-54,9,-15,-18,1,17,46
14,16,-25,25,8,-2,9,20
-128,-86,9,32,-1,-9,-16,-111
14,7,1,1,1,-13,-25,-36
69,52,10,2,0,0,-7,-25
6,19,2,-6,0,6,9,36
4,13,7,0,3,12,14,28
-8,-25,-5,-4,-4,-2,-8,-14
-15,-9,2,1,-2,-10,-24,-3
8,24,14,-128,-33,4,19,4
7,3,1,127,-33,-8,38,46
29,5,-14,-122,76,0,-13,9
-34,6,35,-67,-6,3,-19,-110
-65,-107,-67,-25,-24,-8,-17,-21
14,-12,5,0,-20,-4,1,17
20,20,-19,8,-11,4,5,17
15,42,30,-76,-30,-7,0,12
9,34,16,26,-58,-17,-6,1
-2,-26,-2,-16,87,16,10,7
-29,12,6,127,74,13,8,8
9,61,-1,-76,12,17,18,64
11,-32,-42,-51,-20,-11,3,-49
64,-51,-2,-40,-21,-14,-42,-91
-63,3,34,-3,-15,-16,-17,9
-11,-12,-71,-4,-12,1,-8,-66
-10,-25,26,14,-5,-3,5,13
-3,-1,-19,12,-1,4,7,18
5,18,6,12,5,6,7,14
0,5,6,1,2,-1,5,9
4,5,12,-11,-19,0,-10,4
2,20,13,62,12,11,31,39
-2,-4,3,21,54,16,6,27
16,25,-12,-5,-4,-15,-32,-16
56,31,-59,-4,-6,-5,10,-121
-83,-128,-7,-17,-27,-17,-20,-42
-23,-40,24,-13,-1,-1,-8,13
-2,0,2,6,-4,-1,-11,11
15,29,-2,19,9,4,7,11
15,25,8,3,2,2,13,28
12,12,4,5,3,3,19,36
4,16,1,-21,-7,1,13,24
2,-9,0,-128,-41,-13,-20,-17
15,2,10,110,-64,-26,-11,4
-68,-21,9,78,107,24,2,-7
48,13,76,65,9,-1,-10,2
40,65,-58,-43,75,17,-3,8
-35,-117,-47,-128,-33,-3,-5,-56
-33,-10,22,30,-23,-12,-9,-24
-1,43,22,-57,-36,-14,-4,17
12,-11,14,0,-1,-5,1,14
-21,-38,16,20,-2,1,-11,-39
2,-19,-68,-17,-12,-1,-3,4
3,-4,7,0,3,-5,-1,21
10,22,21,5,-3,-1,7,11
-1,15,3,2,8,-4,-19,-28
-17,6,16,-8,-2,7,-17,-8
0,-5,11,41,15,15,46,28
21,-54,-4,-3,4,-14,-7,-5
53,51,-41,-15,-17,-23,-37,-27
-128,-75,-26,-10,-9,-3,-15,-10
-15,31,3,6,-1,-1,0,21
30,24,9,4,2,5,20,19
17,-4,11,-12,-2,3,-11,21
-17,-4,-33,-9,-3,-9,-28,-59
-48,-1,-1,43,0,7,-2,-69
19,6,16,-20,16,9,5,20
2,-8,15,78,-44,-15,5,19
1,-29,-33,-116,4,4,29,64
-2,10,-24,127,69,15,5,10
-10,22,13,-13,4,-2,-39,-69
4,9,57,-27,-2,-1,-4,-4
30,-37,-115,-27,-27,-12,3,17
-37,-35,0,-48,-29,-17,-2,-4
-11,-10,12,123,-11,-6,1,7
0,30,19,-55,16,9,2,6
2,2,-26,0,-13,-1,6,2
-8,12,31,22,-32,-8,1,-3
-11,1,-27,-13,49,9,1,-5
14,34,25,30,20,8,-5,6
39,-11,27,-9,-20,-4,43,47
-22,-5,-27,-12,-6,-9,-13,-25
16,-25,-61,-11,-11,-6,-21,-5
-37,-24,4,-51,-7,6,30,28
50,15,17,92,-2,-4,-26,-68
-33,-21,17,-104,-3,-14,-37,-58
-51,-5,-34,11,-2,-4,-10,-29
18,18,11,11,-6,-5,-1,20
11,20,5,11,-17,5,19,53
18,25,10,-8,38,10,-3,18
20,36,1,4,-12,-3,1,-22
-15,-103,-9,-20,-39,-11,-2,0
-15,5,19,56,32,10,7,5
13,9,-30,33,63,14,10,17
3,-7,14,-42,-9,4,-17,-10
19,4,-41,15,-15,-8,0,3
-52,35,8,-38,-23,-10,-11,-9
2,19,45,100,-47,-13,-2,-1
11,-33,-44,-41,89,27,18,35
-16,-24,-9,-23,-17,-10,-5,2
-8,-74,18,-19,-18,-10,-29,-74
14,43,30,-128,-66,-12,-13,-15
-12,-23,-18,127,37,8,15,24
7,7,-14,-45,56,17,13,-4
26,-13,-5,-41,-10,-8,-20,-17
-40,24,34,-15,-19,-8,0,9
-20,-6,16,-22,-16,-3,11,12
0,-4,-16,20,-19,-11,-13,0
26,61,3,-5,2,-11,-30,-38
-76,-16,35,0,-3,-1,-7,-45
17,-3,-32,-4,0,3,39,30
-38,27,-8,3,-2,1,5,28
28,5,-8,0,-7,-8,-13,1
20,-53,7,0,4,1,-9,-40
2,1,-8,13,-6,2,-7,14
-28,-5,-7,-31,-56,-25,-30,-14
-19,17,-8,67,48,0,8,-1
18,20,-9,26,48,13,-6,-11
-39,-74,10,-7,-6,5,9,4
-14,-4,-2,-61,-37,-7,3,17
-6,23,53,89,-39,-12,-3,10
5,10,-46,51,79,17,6,15
20,22,-18,-38,1,-1,5,24
14,10,-12,-16,-15,-11,-1,-19
-6,1,52,-128,-100,-28,-17,-23
-19,-21,-41,127,65,6,-4,-6
-1,8,-31,-82,33,25,11,10
-20,-37,-15,-57,-35,-12,1,8
11,-1,-1,-21,-21,-9,10,48
14,11,19,-12,-19,0,0,-46
4,26,11,1,-18,-12,-27,-56
-37,-16,-26,5,-7,-17,-23,-13
24,-12,-2,-7,6,2,12,16
-11,-16,-49,4,11,7,0,40
15,-1,6,11,5,6,11,18
-2,46,11,-5,-7,-8,29,9
-8,22,30,20,4,-2,-25,-97
-2,-20,7,-4,-5,-2,-18,3
20,-2,-11,3,6,-1,1,41
-8,38,13,4,-10,-2,6,-7
17,-52,-13,-13,11,4,6,-8
66,40,-17,-16,16,11,-5,10
-121,10,25,-25,-18,-1,-15,-56
-24,-58,-20,30,17,0,0,14
13,61,15,-5,-28,-8,1,6
41,23,103,-36,-15,-1,8,19
-38,-110,-77,127,26,-7,-7,16
-18,-1,-37,-42,29,12,6,-22
-7,-35,-47,-29,-14,-10,-9,-18
3,27,31,-58,-34,-11,-11,-7
8,22,40,24,-11,-6,-2,7
-12,55,-1,10,-9,4,11,40
7,-69,24,17,35,11,-2,6
57,-20,-25,-49,-7,-9,-11,-21
-74,-1,-4,-26,-19,-13,-15,-31
14,0,33,-49,-30,-8,-6,-3
-15,-15,-21,80,-35,-8,-8,2
0,2,-20,-51,54,16,9,11
4,31,49,-3,0,9,19,39
-9,33,-30,-15,-13,-4,9,25
7,-14,-14,-51,-30,-5,25,-12
46,-13,21,94,14,-10,-23,25
-99,46,4,-30,1,-13,-39,-128
-16,-51,8,3,-9,-7,-4,-2
13,-3,17,-9,-7,0,16,22
6,41,4,-4,13,9,23,44
11,-11,-5,-6,-4,3,-17,-5
-7,14,32,19,-1,-5,-18,-11
27,21,-27,-7,-7,-5,-6,3
-33,-6,4,44,-6,3,2,-6
5,-5,-9,-7,32,11,-4,13
39,28,16,-15,-11,-5,-5,-14
-8,-6,-29,-8,-11,-10,2,-2
-19,-37,-6,-10,-7,-9,-8,5
-27,-15,39,26,-42,-5,7,28
5,29,8,-48,-5,2,2,-1
26,30,-88,119,79,9,1,-24
-75,-82,-38,-59,11,0,-6,1
-1,15,-37,-8,-10,-7,-9,-6
3,-3,12,-19,-15,-6,-1,-25
1,16,54,16,-19,-5,1,23
-17,-8,-23,-6,-7,0,-4,-51
19,16,20,-24,-7,-2,-16,9
-3,-15,-21,25,-22,-12,5,6
-2,1,7,95,14,4,16,8
8,0,-13,-79,30,9,-3,6
9,11,-10,14,9,8,11,30
2,12,0,-2,-2,4,-3,31
3,-14,5,0,-9,-11,-14,-56
-52,-76,-9,-19,-13,-10,-21,-45
27,41,9,26,-1,-6,-10,13
58,28,2,6,-8,-1,15,28
2,-48,-1,-96,-17,-4,-11,15
-21,5,-10,85,24,0,6,-42
-14,50,-2,12,12,7,2,-14
-13,-23,-2,-5,-5,-8,-21,-38
-4,8,3,-11,-6,-7,-24,-17
8,24,-4,-11,-3,0,3,15
1,20,1,-117,-37,-12,2,9
-6,-20,25,127,-48,-5,11,22
42,-23,-7,-30,127,49,47,73
39,16,-96,-103,-21,-11,-11,32
-63,-35,28,-53,-25,-14,-44,-122
-32,-21,-29,-15,-17,-9,-11,-14
-1,-47,-9,18,-34,-9,3,27
12,-14,43,-13,-29,-9,1,8
-10,55,-98,106,77,12,6,18
5,-20,20,-54,-4,-1,-1,-2
17,21,23,41,20,1,4,8
17,-33,-4,-32,-7,7,-7,-6
-7,6,27,-63,-38,-10,-2,12
9,-2,-22,38,24,4,5,18
-17,0,0,68,4,11,28,47
11,27,3,-30,-4,3,-35,-32
-2,-50,-23,-15,-8,-22,-26,-47
-11,-47,6,-8,-10,-7,30,-34
-5,22,9,6,3,5,4,17
2,22,-5,2,-1,4,11,15
-27,23,13,29,-6,4,10,49
21,17,-3,-8,15,-4,2,15
4,11,-15,0,12,-13,-28,-42
-16,-40,-13,4,-9,3,-23,-98
-1,-32,11,-9,14,-1,-10,5
39,27,-6,-35,-20,-2,5,12
-10,41,59,-75,-76,-16,19,46
30,12,-32,127,95,16,20,25
12,-4,-39,-72,24,4,-15,-29
-28,-37,12,-49,-27,-13,-16,-10
-12,21,30,-19,-22,-6,0,9
9,21,36,-77,-35,-6,-2,22
-8,1,-35,93,5,2,7,3
-10,-14,-6,-59,-18,-3,-13,-69
-2,4,11,-5,51,13,-14,-16
3,18,3,-38,-7,-4,24,22
-14,-7,4,12,-12,-3,-3,2
1,8,18,10,-8,-2,-12,-7
-6,-5,6,-4,-14,-1,36,30
-16,17,-11,35,18,1,18,40
58,37,-9,66,20,11,24,8
28,-46,-17,-40,-17,-25,-44,-37
-48,-11,-5,-20,-27,-22,-59,-128
-24,20,8,2,-2,-1,-3,11
9,15,9,-28,-1,5,12,18
11,12,20,-36,-66,-3,13,30
13,11,-52,127,123,23,19,15
-20,4,-4,-32,-1,-10,-10,-2
33,14,18,-17,-15,-4,-1,10
1,-36,-26,-9,-12,-4,-5,-11
-5,-5,9,-11,-10,-1,-4,-37
-17,29,-10,-24,-62,-9,12,63
38,19,15,45,59,18,5,21
46,42,-8,21,45,1,-27,-83
-80,-107,-56,-33,-8,-13,-33,-31
-11,11,-18,-53,-26,-6,-2,19
-5,32,11,22,-16,0,6,16
21,17,19,-12,-2,4,7,17
26,13,11,-9,-3,5,5,10
4,11,9,-128,-78,-17,0,15
-28,-9,-3,127,127,21,10,8
40,-5,22,-96,12,8,10,-9
0,1,-8,-46,-23,-11,-26,-31
-14,-12,3,-8,-29,-17,-25,-33
-2,-16,-45,-42,-8,-9,-4,-37
-12,-10,16,45,-7,4,14,44
18,28,-22,-14,14,1,-15,25
27,7,20,55,-27,-12,-1,-35
-32,-28,2,-22,5,-8,-17,-33
50,-13,10,-32,3,-1,-9,31
-51,63,-51,41,5,6,8,-9
-20,-12,15,6,-6,2,5,14
-16,-87,-6,-47,-10,-6,-7,-4
-22,10,24,41,-35,-4,-5,7
11,16,-10,12,45,17,10,29
73,31,-19,16,30,-15,-5,-33
-15,15,-4,-39,-16,-7,-29,-15
-22,-31,4,-13,-13,0,-3,-19
2,27,16,-24,-13,0,5,12
3,21,-46,-31,-18,-6,3,36
-6,12,4,65,-10,-11,-1,0
33,2,13,45,-24,-10,-39,-68
-6,8,1,-9,60,30,24,15
34,-5,-22,-32,-8,6,0,31
-72,-27,25,-22,-19,-8,-10,-43
2,8,-22,-8,-7,-2,-5,-1
-6,-7,5,-7,-12,-4,-4,3
3,2,5,-1,-13,-2,-4,6
4,34,25,-109,-25,-11,-7,-2
8,-5,25,127,-21,-1,5,1
0,23,-1,42,104,22,10,18
-15,-57,-50,-54,-14,-4,1,4
-13,-44,-42,-32,-21,-3,-7,-26
-3,89,13,-12,-14,-11,-19,-34
5,-47,10,-1,-9,-4,-2,30
7,-2,4,0,-6,-1,39,21
-22,19,22,0,-4,3,-7,-59
-12,15,11,19,-1,-2,-1,4
5,-19,1,-5,4,-8,-28,-14
60,-91,-17,1,-4,-6,-5,22
-43,22,-9,-4,6,-1,-3,-15
-7,74,9,-4,-3,2,-5,-38
-6,-19,6,18,3,8,4,15
11,-12,5,-107,-39,-6,48,64
3,33,5,127,-7,-12,19,39
30,1,-39,-30,56,2,-15,-47
48,-2,40,-100,4,-6,-64,-81
-96,-80,8,-28,-24,-12,-23,-35
3,-1,-67,-2,-16,-2,3,14
14,25,-1,10,-12,0,12,20
8,4,-11,-128,-36,-10,6,16
4,2,7,127,-18,0,4,8
3,17,20,1,53,23,12,9
-9,10,25,-64,-30,-1,-1,18
-10,0,-16,113,39,4,21,10
-14,-14,-2,-62,-15,-30,-37,-46
48,16,-21,-14,-20,-15,-20,-10
-5,-18,6,13,-14,6,2,19
-32,-60,20,-18,-2,-4,-1,26
-39,21,-45,-7,-4,-5,-6,-50
5,18,-33,-33,-14,-6,-2,2
26,22,22,21,12,0,0,0
1,-19,18,5,-3,-2,-3,2
-7,-3,0,-5,-3,3,-17,-9
1,8,-1,20,3,0,25,41
49,45,12,-3,-4,0,18,69
7,37,6,38,-2,3,-21,-35
25,-25,-9,-69,-11,-8,1,-24
-107,-37,0,-22,-13,-14,-17,-42
-16,-9,-11,63,21,-8,-16,-4
46,-4,2,33,-5,3,0,10
-39,-8,-13,-18,-8,0,1,13
-2,15,8,15,-14,-6,6,5
6,-8,2,-86,-25,-5,-9,-1
6,22,28,89,-39,-11,43,21
6,26,44,-61,85,31,19,42
4,-38,-70,-23,-7,-13,-17,-22
-11,14,-32,-11,-19,-10,-14,-64
18,-45,33,-8,-10,-3,-4,1
-18,5,28,-1,-10,-2,3,4
-6,4,8,-2,-6,-3,4,6
-1,14,11,-3,-9,-1,0,4
1,7,0,-1,-6,-1,-2,2
-1,1,-3,2,1,-1,1,0
0,11,11,-128,-58,-10,1,-7
-14,-6,-15,127,-4,-4,3,5
14,38,-23,-56,90,32,38,88
53,54,66,-45,-10,-9,-30,-49
-37,-123,-7,-30,-19,-13,-60,-128
-43,-35,-38,22,-20,-7,-1,27
-28,1,-45,-57,-24,-5,2,-15
14,25,49,-9,4,1,14,23
7,18,-45,6,-4,6,0,-33
10,22,25,11,5,3,-15,6
-6,12,1,9,5,2,10,7
-1,10,9,6,-4,-3,10,18
10,26,13,-30,-36,-1,18,34
28,6,-1,127,10,-4,-24,-8
-55,-128,-40,-32,65,10,-23,-95
-23,28,25,-13,-5,-3,5,12
-4,-2,-5,-77,-14,-11,2,37
34,-5,6,27,-17,-1,13,19
4,-24,-47,27,-6,2,-4,-59
6,35,31,35,30,3,-14,-8
-106,-60,-39,-37,-19,-13,-11,6
-12,-9,-8,-10,-8,-3,-2,-4
-1,18,17,-80,-39,-12,-8,-8
7,9,26,36,-11,3,6,14
8,12,19,127,38,17,22,43
-2,-33,-32,-85,31,6,1,21
-15,31,-62,-44,-20,-15,-26,-85
20,1,18,-16,-26,-7,-36,-27
-24,20,29,1,-9,2,-4,9
-17,9,-5,-5,-11,-12,37,27
10,-17,-7,3,-5,-13,-11,-3
-4,25,50,3,-10,-10,-8,-5
11,-10,-71,-3,-5,7,7,19
32,6,-1,10,17,7,15,52
-32,-44,-18,-6,1,2,-8,-21
-30,-14,4,-1,2,0,-4,-44
15,21,-3,-1,-4,2,1,24
-14,8,17,-1,-7,1,1,-4
8,-4,-7,-1,-2,-9,-15,-12
-80,-3,-4,-7,-8,-6,-14,-20
-17,12,3,20,-3,-6,-1,0
9,8,13,-98,-71,-17,1,8
-15,0,-35,11,32,5,1,1
-15,6,23,127,51,30,24,35
77,23,-13,-76,64,17,67,65
38,-2,-58,-61,-34,-26,-43,-31
-70,-117,-63,-42,-39,-19,-44,-128
-35,-5,35,-20,-26,-6,-5,18
-6,6,30,-3,-24,-1,4,23
11,61,14,-61,-2,2,3,-1
4,-4,-20,33,-27,-9,0,8
1,-22,22,75,54,8,9,13
1,22,-2,-17,-4,5,3,16
-1,6,-29,-13,-7,4,1,9
59,-6,-19,-9,-10,-5,-2,-7
-48,12,7,2,-7,-4,-5,-7
-7,19,9,-9,-17,-2,12,29
0,30,10,13,7,-6,0,10
-11,-65,0,-5,3,5,-6,-20
-24,10,6,-4,3,-1,0,4
51,-8,-17,10,-7,-15,-18,-36
2,31,23,-26,-10,-16,-30,-36
-29,54,-23,92,-53,1,7,2
-17,-65,-21,-6,103,36,22,11
14,-56,24,-35,-5,-4,-9,-18
-7,24,-28,-26,-12,-11,0,-45
-31,12,-20,-13,-12,1,3,15
1,12,16,-4,-7,4,-2,9
-9,10,13,-7,-3,-1,2,-8
36,-23,2,9,1,-1,-1,10
-12,-9,-2,23,2,-1,-2,3
4,17,13,2,-37,-14,-6,3
-8,3,-1,-113,-55,-13,-8,-2
-8,19,15,127,124,27,21,18
10,12,32,-24,-9,3,14,29
36,44,-44,-9,29,4,-15,-16
-16,-89,-90,-63,-35,-14,-25,-68
-39,-32,38,-19,-28,-11,-9,-13
-23,29,29,-3,-18,-8,4,1
2,-3,16,5,-28,-3,9,-1
10,14,-12,53,32,8,1,29
22,4,-34,-34,29,6,3,24
35,24,6,-7,-3,-7,-12,-34
1,53,6,-10,-11,-10,-32,-60
-11,-44,12,28,-4,1,17,27
11,4,-1,-12,1,-1,2,18
-20,2,-23,23,-13,-3,-5,-3
-2,31,-6,-33,-1,-1,-6,-1
3,-29,12,12,-15,-3,-6,-9
20,18,-4,-128,-33,6,36,87
3,21,-5,127,67,7,13,11
45,-30,-23,-128,-5,-11,-67,-128
-76,-9,35,-34,-12,-12,-29,-54
1,3,-79,-23,-9,2,7,15
17,15,18,-19,-11,1,16,18
6,18,48,52,-52,-12,10,21
-1,-22,-22,33,88,14,14,14
6,24,30,-7,0,5,6,11
35,-9,-12,-8,-8,2,-2,9
-17,-10,-6,-8,-11,-8,-4,-16
2,1,-8,4,-7,-3,-4,12
-15,-29,3,20,9,7,-6,-19
-5,0,9,5,-3,3,21,-5
-4,9,6,-22,-20,-4,-4,-21
-22,23,28,-1,-98,-16,-5,10
17,12,-5,127,127,29,12,32
59,-7,-8,-103,-5,0,1,7
9,27,-62,-48,-27,-9,-25,-50
-65,-48,-7,-31,-23,-10,-10,-5
-16,-58,11,-3,-15,-7,-5,-4
3,32,18,7,-9,0,1,8
4,21,24,13,-4,3,0,4
7,5,17,-26,-19,-1,-5,-8
-31,11,-5,-9,-6,1,50,62
46,12,-17,12,45,13,7,2
-3,-40,-7,19,-10,-17,-32,-75
12,-1,-2,-4,-4,2,-31,-14
-17,-19,5,-3,-6,-6,-13,-24
-13,26,6,-4,-7,-8,1,-33
-7,-48,-3,-57,-42,-15,-7,4
-25,15,-15,53,3,10,18,36
33,45,-6,-57,66,32,14,28
34,-13,3,-9,-11,-13,-8,2
-14,-20,7,-12,-19,-11,-12,-3
13,12,9,-3,-11,-1,-6,7
-5,40,-20,1,-6,-4,41,10
9,6,5,-18,-6,-7,-12,-19
-79,-16,16,-18,-3,-4,-3,10
-19,10,71,7,-21,-3,-11,-10
-1,-14,-37,50,47,18,4,-1
14,7,-16,-11,0,-4,4,5
43,40,33,-51,-15,0,7,30
-8,-17,-20,-23,-13,-6,-16,-70
-42,-6,8,103,-24,-7,-13,-24
28,34,68,17,-25,-6,0,33
3,18,-2,50,115,25,19,46
29,54,27,-66,-11,-6,12,-12
-51,-128,-75,-29,-33,-21,-25,-73
-3,21,-5,-9,-18,-6,-3,7
3,27,12,6,-9,-5,3,17
2,19,10,4,-13,-6,-4,5
-3,-2,16,-108,-38,-7,3,0
-12,-31,7,127,54,15,7,5
7,9,8,-24,10,7,-1,1
8,4,-29,-42,-6,-1,1,3
-8,-13,19,-6,-8,1,-14,14
-1,-3,29,-4,-10,-11,8,31
32,-30,-37,-1,-11,-4,-7,-23
-97,22,6,19,22,-8,-22,-67
-2,-5,-2,1,-8,-12,-19,21
24,18,-2,-1,-1,4,3,1
-8,20,6,-2,-4,8,3,-29
13,-16,7,-36,-2,10,6,40
-5,5,17,83,-36,-10,-10,6
11,-4,-45,-61,58,-1,7,-21
17,-26,-33,-99,-26,-11,-16,-32
-40,53,28,80,22,14,4,12
-20,-80,-54,-15,-16,-4,0,13
-2,-66,21,-55,26,10,12,13
3,38,-43,31,16,2,0,4
28,-12,-12,-13,-16,-3,-2,9
-12,30,33,-128,-76,-16,-2,11
-6,32,10,127,47,1,3,-11
-12,-10,-11,52,54,7,0,-5
2,-25,-19,-20,-17,-12,-13,-20
14,-17,-33,-11,-6,-1,1,15
-37,28,20,-1,-20,-5,9,18
1,-24,-34,-30,-6,8,17,25
10,-40,-40,-15,1,-6,-24,-43
-34,-1,24,7,-3,-9,-27,-66
14,31,6,8,-4,-3,-1,9
1,-29,2,7,-1,5,8,18
-18,3,1,8,7,5,-1,41
39,56,13,-19,5,10,40,45
49,-14,-4,26,-2,-12,-24,-22
-46,-31,-11,8,-3,-19,-64,-109
-37,-128,16,-7,-4,-3,7,-11
-3,9,-62,-13,-4,1,8,25
3,15,16,-4,0,-2,-2,14
9,11,-9,-1,3,0,1,14
9,15,2,-3,-5,2,3,6
2,13,3,-3,-4,4,0,7
2,7,9,-32,-16,-1,0,1
-5,7,35,12,-111,-20,8,33
12,5,-38,47,127,43,16,9
32,31,29,-90,3,-10,-32,-78
-109,-103,-26,-44,-12,-8,-29,-68
-28,-12,-53,-23,-27,-8,-8,-43
-9,-36,36,-38,-60,-16,-2,14
36,-36,-30,71,47,8,12,19
-8,40,38,-22,-5,0,8,13
8,19,-38,1,-4,2,-1,9
4,15,23,1,-7,-5,-5,5
5,7,25,-58,-60,-15,-3,-2
-5,16,-20,110,65,15,5,-4
-8,-27,-5,-16,18,16,-7,5
-26,7,4,-8,1,7,16,74
8,-10,-22,-18,-8,-1,69,20
57,40,-33,32,-26,-23,-55,-101
-64,-52,-2,-47,-12,-19,-40,-45
-27,14,15,-3,3,-10,-24,-29
-5,-85,7,3,-1,1,6,15
12,29,13,11,-1,4,6,22
17,14,-2,-9,5,10,19,25
19,26,-6,33,6,12,28,20
6,0,-12,-25,-5,-11,-15,16
5,29,42,46,3,2,-10,11
13,21,-43,8,7,-2,-5,-24
-15,-42,12,-9,-8,-1,1,-21
-2,-4,18,-9,5,0,6,4
-5,-17,-13,20,0,-5,1,7
24,18,3,-3,-1,1,0,7
7,22,32,-128,-65,-9,-2,1
-8,-16,-21,127,-17,-7,-4,-6
4,11,-23,-128,79,25,22,25
-9,27,32,-1,23,8,0,-2
11,-11,31,-63,-63,-24,-26,-30
22,-16,-70,30,31,3,-29,8
-15,-16,-48,-26,-16,-4,44,12
-12,15,-1,-35,-18,-6,-2,-13
2,-17,35,0,-10,-9,-13,-22
0,-12,4,-1,-11,-5,-14,-16
-4,-27,23,5,-31,1,-3,6
-10,62,7,50,41,3,9,15
32,-83,3,-33,17,-13,-19,16
31,53,-40,-10,-3,1,18,47
-75,-98,-4,-12,-19,-9,-8,-25
-5,-13,7,-4,-11,-4,-24,-47
-8,18,-6,1,-8,-9,-2,-28
1,-6,4,2,1,2,-11,12
43,19,3,7,2,3,16,7
-6,3,1,5,-2,5,-4,10
28,-2,-2,-2,-2,-5,-9,-15
-20,12,10,-2,-4,-6,23,17
-26,8,-3,-40,-35,-10,3,14
21,30,36,29,48,32,17,14
24,-12,-24,-16,26,10,-8,19
58,-8,-39,-20,-11,-8,-14,12
-56,-19,20,-42,-24,-10,-17,-62
-79,-54,3,-14,-20,-15,-9,-24
15,-29,-5,36,-48,-15,-1,9
-2,17,-21,127,94,20,8,-2
7,16,22,-89,-7,0,4,12
10,12,7,-64,-20,-10,2,10
4,-7,48,127,-66,-12,2,2
18,30,1,-51,102,36,17,17
-6,-13,-65,-39,-23,-7,-7,21
31,14,-14,-5,-15,-8,-2,-11
-13,-34,12,-25,-15,-9,-13,-16
-19,5,12,23,-9,-8,-5,-17
-10,39,11,0,-9,2,5,7
26,-9,1,17,17,0,7,31
-6,-10,-1,-12,-6,-4,-12,8
-6,-19,4,-31,-16,-1,8,-38
41,44,-5,12,-1,2,-12,19
2,-34,22,60,36,9,18,42
10,26,-52,17,-4,-10,-23,-40
-46,-65,-3,-17,-16,-17,-38,-54
-6,-15,-13,-20,0,-5,-11,-22
14,34,14,24,8,3,7,17
1,12,4,-7,-3,-3,8,15
-2,13,2,-8,-2,1,4,14
8,13,5,-8,-9,3,8,13
9,19,12,-13,-45,-7,3,3
7,7,32,95,98,18,7,3
4,-14,-24,-48,2,2,3,6
7,-10,-70,-24,-11,-9,-8,-11
-1,-8,1,-11,-17,-7,-6,-19
-9,-30,-11,24,-2,-3,-3,-4
2,13,34,-128,-25,-5,-1,1
-1,11,7,127,-4,-5,-3,2
2,7,26,-10,19,7,-1,-5
-3,7,-9,57,30,1,-4,-2
-28,-16,-62,-29,-15,-6,-3,0
15,33,25,-66,-40,7,36,59
36,-11,14,127,87,17,9,23
11,-110,-48,-56,-14,-16,-30,-128
-66,18,12,-13,-14,-9,5,19
-23,35,20,-10,-10,-11,-3,-15
10,25,-17,-7,-7,-1,-2,-19
29,25,7,-2,-10,-8,0,30
18,14,7,-18,8,2,4,31
6,-3,2,10,-1,3,14,-2
-44,-5,-3,9,6,6,-24,-20
43,14,7,-3,-4,1,4,4
14,-8,-6,-2,-8,-18,-13,7
-47,-32,-25,-15,1,4,-18,-43
-11,-6,-1,10,-2,3,0,5
0,9,2,-11,-12,-2,2,5
-2,22,10,45,-21,-17,-4,7
3,14,-15,-58,53,15,9,23
7,28,2,31,-10,1,-5,-26
5,11,5,-16,-26,-4,-3,-2
13,3,27,63,-1,1,0,-4
-5,-13,-1,25,-16,-7,-3,-1
-13,41,-32,-81,9,4,10,17
-14,-31,-62,-48,-11,-4,-1,-12
26,-32,-17,20,-13,-2,-18,7
-9,1,-25,-5,2,0,-6,2
-4,26,28,30,3,-8,-7,-14
23,43,20,-18,-23,-3,-7,-31
12,-1,63,-25,17,5,1,14
-35,-25,-39,-9,-2,5,3,1
-14,-13,-12,-7,-11,-8,-9,-4
20,0,19,1,-8,-4,9,16
22,37,7,7,-8,-4,-1,18
-26,2,-23,19,12,-6,-17,-7
-2,-31,5,-8,-2,-1,8,-15
-1,12,9,3,2,-2,-18,-1
23,41,5,6,0,7,4,33
52,57,5,4,5,8,37,17
-123,-111,-3,-31,-22,-22,-33,-41
-36,-36,11,35,12,-3,-17,-9
6,17,-20,2,0,-2,-6,-18
38,26,-12,-35,-14,-8,12,39
23,-25,10,2,-16,-1,7,7
-8,34,12,-20,52,15,-21,-80
-10,18,8,71,4,0,-11,-4
-24,-12,-7,-20,-6,-1,7,15
11,8,10,-80,-92,-19,1,13
5,-3,21,127,70,12,7,23
14,12,-84,-41,54,16,9,7
-12,-16,1,-41,-27,-9,-8,-36
3,-16,-18,-20,-15,-5,-1,1
6,-39,19,-8,-16,-6,-2,5
5,21,32,-62,-42,-12,-7,-1
-7,0,3,112,8,1,-2,-3
-16,-8,-42,-111,10,3,5,20
12,19,1,30,11,0,6,31
46,6,-3,4,10,4,-6,-18
-6,-41,-12,-15,-14,-1,-17,-54
-100,-56,33,8,-12,-6,-37,-21
3,-43,-55,-5,-11,-7,18,35
-48,11,3,-7,-31,-8,16,23
10,23,-8,41,26,-6,-19,-69
17,21,25,3,6,3,-21,-4
25,16,25,-17,-27,-13,-14,7
-5,-22,-34,0,15,11,7,2
12,21,-8,-28,2,3,10,-14
-40,-12,-13,22,7,-3,-3,6
-1,-12,42,-3,-8,-5,1,2
-3,9,-19,-2,-5,0,6,9
-17,7,1,-2,-3,4,-18,3
15,-11,0,-36,-22,-7,10,11
38,-4,-11,88,21,9,54,39
35,73,-16,-4,29,8,-13,-31
-85,-128,-19,-28,-20,-6,-37,-73
10,-54,41,-62,-40,-14,-12,7
9,-4,-11,68,3,-4,1,5
19,36,10,12,69,21,14,12
11,8,-35,-10,-13,1,4,13
-4,20,17,-75,-36,-6,-1,27
-21,0,-11,63,-29,-8,-14,-56
-7,5,-70,-9,42,4,-5,-27
-21,0,-11,63,-29,-8,-14,-56
-7,5,-70,-9,42,4,-5,-27
8,-56,17,-31,-15,-4,3,17
50,20,18,-30,-25,-9,-2,6
