Channel_1,Channel_2,Channel_3,Channel_4,Channel_5,Channel_6,Channel_7,Channel_8
0,-7,-8,-9,-4,-1,-4,-3
1,3,23,-17,-9,1,5,-5
-11,-16,0,-15,-3,0,5,-13
-3,11,10,41,5,2,85,1
0,10,13,-7,1,4,-110,1
10,18,65,27,-3,-8,-26,1
15,0,-109,-73,-19,-8,127,12
-21,-34,-26,-4,-13,-6,-92,-4
-1,12,83,42,28,8,-46,1
-5,-6,22,-3,0,-17,-128,-8
-2,0,-8,-14,-5,-1,4,-15
6,-19,-128,-2,-10,8,127,24
9,22,15,36,11,0,0,3
-2,-13,-5,13,-1,-3,2,0
-14,-18,24,-37,-8,-1,0,-4
1,0,6,26,7,1,-1,-3
-4,-14,-11,1,-5,-5,-4,2
6,4,-13,23,4,-4,4,3
17,17,28,-41,-1,9,4,-2
5,8,59,63,-11,-6,-21,-15
-26,-8,-4,-44,9,0,6,-3
-5,-25,-128,-25,-2,-5,1,6
3,-31,37,8,-10,-5,-21,3
9,8,-128,-1,-10,-7,-34,-3
1,16,125,21,13,1,-30,2
-34,11,60,-10,6,5,-20,-1
18,9,39,9,2,4,44,11
-1,-49,-128,-28,-4,-6,24,-1
-7,0,7,-16,-17,-2,43,-3
6,14,48,-26,-15,-7,-11,-14
-22,-10,-46,1,-11,-6,-7,-9
-22,-7,5,67,34,3,5,10
6,-25,60,3,6,-6,-6,0
2,20,18,2,-1,-1,-2,2
8,2,-61,-35,-8,-3,13,9
2,-7,26,42,-1,-11,-12,-3
-15,4,-10,42,4,0,-49,-3
6,-7,-13,-11,3,9,-9,-13
-3,7,83,8,-13,-11,20,-9
4,-15,-102,-26,0,-6,-14,-1
-25,-13,120,-26,1,0,-10,-3
8,20,-26,4,-5,-1,-47,13
17,-13,-128,5,12,2,54,5
12,-21,126,-18,-5,-4,-25,6
5,40,-26,-8,4,2,-5,-8
-9,-8,12,-10,-2,-2,-17,1
13,36,4,-1,0,2,39,15
4,-8,-46,-11,-3,1,72,1
-4,-50,41,-19,-19,-7,-24,-11
9,2,-40,18,0,-9,-6,-5
10,-8,-2,-33,5,1,7,15
11,9,33,-45,-21,-6,8,17
-8,-8,-57,33,7,-1,21,-3
-14,-4,21,-11,7,2,-9,-20
-10,14,75,-6,-11,-8,-83,-21
-26,-12,-26,1,-8,0,80,4
2,8,-32,-28,1,4,-128,7
14,1,50,-20,-7,-6,127,4
6,16,-3,18,-4,5,-8,6
9,-17,-4,7,6,2,-20,5
3,-1,63,8,-3,-1,3,12
-22,0,69,-16,-9,-11,-24,-12
-4,-5,12,19,-2,3,-7,-6
-5,-22,-128,-73,-3,-6,-29,-17
11,14,32,30,3,-1,0,3
-9,-11,-128,8,4,-1,5,3
-8,3,113,-25,5,-3,2,-5
-9,12,126,1,-8,0,-7,-7
13,3,26,30,5,-2,-3,0
-4,-33,-114,4,13,11,15,4
-6,9,15,-23,-13,-1,-25,-5
1,-34,5,29,-8,-7,-26,0
8,3,7,-44,6,5,66,3
-6,9,29,-29,-19,-9,3,6
-4,0,86,32,4,0,-5,-3
-8,-4,-95,-11,6,3,-31,-14
9,38,18,41,2,4,1,7
-1,-23,-59,-49,4,-4,48,5
-6,-11,19,-13,-6,-5,4,-5
6,5,-4,-4,-6,-9,-20,14
-15,-7,90,-9,-9,-4,-29,-1
4,13,56,9,3,6,-12,11
-4,-14,58,-14,-4,1,13,-35
5,-14,-128,8,-4,-2,1,-4
-9,-11,-2,-20,-4,-6,-116,-11
1,28,122,-2,2,9,27,-3
-7,-54,-128,-22,-14,2,-39,4
2,2,125,3,24,1,64,6
6,-3,64,11,-7,-2,38,27
15,28,127,-27,-4,-2,8,3
-8,-4,72,40,-4,-5,-50,-38
-29,-29,-128,-6,2,-3,-62,-37
-5,27,61,29,9,-1,-13,-4
3,-43,-128,-7,-11,-11,0,5
9,48,53,-22,-6,2,6,11
13,36,127,18,-9,1,10,8
0,-59,-128,-23,5,-3,-1,1
11,-24,-27,-8,6,0,3,5
-12,24,8,16,0,-4,1,6
-8,-25,83,-35,-7,2,22,2
-15,-14,-76,-5,-14,-6,-7,-18
6,-2,26,-42,-7,2,2,-2
7,20,61,41,-7,-16,-92,-13
14,47,68,33,20,8,41,-3
1,0,-116,4,1,2,8,1
2,-37,59,-13,-6,-2,-24,8
13,8,-86,-6,-7,4,63,13
-18,-1,-104,-5,-4,-12,-16,-24
-1,-25,-80,-15,0,3,-7,-9
19,13,55,3,-1,-4,-53,25
-4,1,-58,-11,-7,-12,-13,-4
-7,10,19,11,3,8,49,-30
5,1,6,-1,-2,-2,-26,-9
8,5,13,5,5,5,26,21
7,4,5,-23,-5,-12,-35,16
3,26,34,27,2,15,27,-13
-4,4,3,14,-2,6,36,0
-10,-24,-52,12,3,-4,30,-1
-20,-49,-128,-19,-2,-8,-86,-61
-11,-43,86,-50,-31,-11,-64,-28
4,6,44,10,13,3,-10,2
15,25,5,7,0,-3,27,17
15,33,127,22,-1,6,17,18
0,5,55,1,4,2,10,11
-11,-36,-128,-46,-15,-6,1,0
-1,-7,79,13,-8,-2,4,0
1,9,-46,17,5,-2,10,13
7,39,37,15,-14,-4,-6,8
2,12,113,58,53,14,41,-17
-11,-69,-128,-27,-6,-1,-45,-33
-9,-9,-20,-31,-20,-5,9,16
0,5,-62,-6,-9,-1,29,10
4,9,46,6,-5,-2,-8,-18
-27,8,97,-8,-6,-11,3,-28
11,34,76,16,-3,1,-28,1
-5,-25,-2,-25,-9,-3,0,6
6,-43,-128,-24,-5,-7,-3,13
5,-7,58,18,2,-3,-3,1
-6,1,16,-5,6,5,25,0
7,8,-67,6,-3,1,-2,-4
-2,-8,-14,-77,-1,-7,-128,-19
-1,21,76,19,-6,-4,127,-7
4,24,127,62,0,-7,58,-2
12,10,-6,-5,4,6,-22,13
-11,-62,-128,-18,-7,-4,-11,6
-18,6,123,-37,-8,6,-19,-8
6,43,67,9,-6,-7,15,9
4,28,18,40,11,2,-59,-17
-6,-6,57,3,2,0,-15,-13
-2,-37,-128,-36,-8,-1,-12,-11
-11,6,-73,-24,-12,-4,-1,-1
3,11,79,20,0,-2,20,4
-12,-12,-6,2,5,1,3,4
11,0,38,10,-5,-8,-27,14
12,11,42,2,-2,4,46,20
10,-13,-128,-22,-9,-7,44,16
-31,-3,-9,3,-4,-1,-61,-32
-17,8,104,7,-3,-2,15,-16
5,-1,-12,3,-7,2,-25,-3
23,-3,-96,28,13,5,21,18
5,-19,14,-82,-9,-5,11,12
-25,36,127,29,-6,-8,-40,-3
-31,-62,-128,73,24,4,16,1
8,-41,-75,-30,-16,-8,-43,-40
4,15,85,-29,-11,-7,-8,-18
9,29,127,13,-1,-5,-75,-6
7,38,127,23,-9,5,75,15
-5,-51,-128,-21,3,1,39,2
4,3,95,-25,-8,-1,57,19
4,16,48,4,14,1,6,8
11,17,53,-1,12,5,9,17
-2,-7,-33,9,0,1,-14,1
-12,-45,-50,-6,-7,-4,-8,-22
-17,18,51,-9,-9,-2,-60,-47
-2,6,-6,12,5,-2,-55,-11
3,1,10,-77,-24,-6,46,2
16,-12,-38,41,12,2,56,23
16,5,-28,-12,3,12,23,34
-11,10,88,10,2,-7,-5,-10
5,33,40,43,10,0,-32,-19
-1,-51,-128,-48,-1,-6,-27,-20
-55,-64,98,-37,-10,2,-5,-20
-23,-6,120,-17,-8,-5,11,-4
7,19,92,18,-10,-13,-11,0
6,5,-21,-7,-10,-8,-27,6
21,14,81,21,3,-3,10,7
12,30,34,-2,6,5,15,14
8,-13,-70,9,-6,-8,-128,20
-6,-10,33,2,-9,6,127,5
-19,-4,-128,-42,2,-2,14,-33
-1,-20,-84,19,6,3,-53,-21
-24,-4,-4,5,0,2,-15,-5
8,1,8,0,0,2,10,0
2,7,16,-3,-8,-6,-56,-8
9,17,7,3,-3,-6,-28,0
14,21,21,-7,-11,-2,-4,8
-2,-30,-87,-35,-7,-3,21,23
29,37,127,39,9,6,32,37
0,20,-53,-10,15,5,4,-8
-22,-115,-128,-40,-9,-5,-55,-58
-30,-31,127,1,-10,-14,-4,-30
-1,34,86,-7,-13,-13,-79,-11
10,4,19,-22,-9,4,85,14
17,34,93,40,-2,-1,21,14
-1,18,-17,-5,18,-1,4,13
-13,-56,-128,-66,-6,2,16,3
2,-9,110,21,-7,-12,-23,-9
-1,20,71,26,-4,-2,-2,-11
-4,7,-45,6,16,2,-27,3
29,28,-128,-13,-4,2,21,24
-6,-19,127,25,6,1,7,-9
-8,-34,-66,-40,-5,-4,-21,-10
6,6,14,-8,-10,-5,12,15
-33,-5,-20,-4,-4,-4,1,-16
-8,-15,-10,3,-2,7,-69,-25
4,18,25,9,0,0,-40,3
24,21,19,-2,-7,1,127,42
-12,1,-72,6,1,2,41,-17
-12,0,53,5,3,-4,-105,-55
10,-28,-128,-17,0,3,-28,-4
-1,34,93,-7,-12,-7,-23,6
-6,-1,-27,-10,-9,-11,-18,5
0,-21,-127,20,7,4,47,11
-5,-1,-118,-37,-7,-7,-9,-4
-8,1,52,-10,-5,-9,-35,-6
0,37,110,7,-2,6,1,11
6,-40,-95,-13,23,9,17,8
-15,-90,-52,7,-1,-7,-3,-16
-10,17,121,-91,-31,-15,-22,-17
11,42,60,127,25,5,-26,17
0,0,20,-18,2,10,88,9
-1,1,38,-10,0,-11,-1,-22
-7,-2,-81,-7,-5,4,-13,-8
-7,-10,62,-35,-19,-3,1,15
-5,-48,-74,-14,-1,1,7,-12
-2,27,-67,30,7,1,-28,-13
-2,45,93,-2,6,0,-6,-5
-10,-48,-128,-22,-11,-4,-8,-5
4,-40,-40,-28,-5,0,4,3
-6,10,118,5,-3,-5,-78,-5
10,19,57,-17,3,1,28,11
11,12,60,12,1,3,30,4
-4,-28,-128,-8,-11,-11,-29,-1
-37,29,55,-19,-7,3,63,3
17,-1,-35,33,5,-1,20,18
3,-31,-64,-25,-4,-2,-10,-9
2,-11,16,-30,-11,-8,-57,-14
-28,1,-63,35,2,-1,9,-3
3,8,1,8,-2,1,-74,16
9,-6,-4,-13,8,7,127,-27
-10,-6,57,-13,-20,-2,-53,-25
-20,10,-13,1,-20,-16,-34,-12
12,25,-25,-8,21,3,13,12
-3,-7,50,-9,5,4,3,1
28,43,127,39,-15,-13,18,20
-5,-33,-128,23,11,7,4,0
-34,-73,-128,-59,0,-4,-64,-13
-23,-14,127,-30,-22,-10,94,-2
-2,12,-44,25,-5,-6,4,3
2,9,-104,-6,-14,-1,6,12
9,22,26,6,2,8,13,13
1,25,18,-3,14,4,16,-12
11,4,-44,7,-1,-1,-54,-20
-6,3,-13,6,-7,2,-7,-12
-8,-1,-52,10,0,0,3,2
-4,0,-43,22,-15,-10,-19,2
1,1,-9,16,16,7,10,6
-11,-13,-1,-31,-8,-6,8,7
12,6,39,19,1,-1,12,9
9,35,55,9,0,2,9,0
7,4,72,-15,-2,-4,-37,-7
-55,-70,-128,-38,-9,-6,-42,-31
17,32,127,10,-6,-2,31,-2
2,7,26,34,-9,-2,-16,5
-15,23,-5,-52,2,-2,19,10
20,7,48,49,1,1,83,17
20,-37,-114,31,15,7,-27,9
0,8,-5,-76,-24,-16,-84,-1
-10,-5,-12,47,1,4,127,-10
4,-3,-23,11,14,10,2,17
-37,5,5,-6,-2,-5,-6,-21
22,19,53,17,1,-1,-83,-26
-12,48,127,-31,-7,-5,-7,-5
-3,-50,-128,4,5,-5,3,-8
-10,-53,117,-61,-11,-7,-24,-10
6,4,-22,1,3,4,8,14
18,35,-15,28,6,10,6,14
-16,-25,-48,-15,-9,-1,62,-7
-4,-42,-44,-27,-18,-1,3,3
3,7,71,52,24,-5,5,4
19,11,6,-7,-3,-11,1,14
-6,6,2,-18,-4,2,-12,-6
-11,17,-7,-11,-8,3,60,3
10,6,1,-31,-20,-7,31,4
21,43,100,98,21,5,-55,-4
1,-97,-128,-25,4,5,-18,-7
-27,-6,119,-25,-16,-12,-10,-27
-7,-14,51,-8,-6,1,0,15
-7,13,39,-8,-4,0,19,-2
3,-7,34,3,-1,1,14,11
-6,24,48,-9,-4,-2,-7,12
17,48,13,11,3,10,-28,37
-11,-43,-128,-30,0,-2,55,-19
-20,-31,67,10,-10,-20,-76,-68
-22,-12,-69,-3,2,-6,-80,-53
16,22,88,11,8,8,24,13
11,52,26,55,3,0,10,16
5,-42,-128,-80,-9,-9,4,23
7,22,127,12,1,5,4,12
-17,-7,40,46,-3,-4,6,-5
22,-2,-128,-21,-6,2,4,-2
-15,-2,25,-9,-10,-12,-12,-5
12,15,76,-4,-6,-3,-11,13
23,31,90,38,13,7,47,6
-10,-30,-128,-11,4,1,-33,-6
-43,-65,-128,-38,-19,-12,-16,-20
-17,-5,103,-21,-12,-3,-32,-13
2,6,19,-17,-7,-7,32,-7
21,6,11,-15,13,9,13,17
-4,12,44,22,0,3,-2,4
2,6,48,19,9,2,-2,0
4,-4,-128,-13,0,6,42,-1
-5,-48,-128,-17,-18,-12,-27,-3
-10,-2,127,-17,-5,-15,-16,-12
-5,14,-21,17,5,1,6,-14
-5,-1,-66,-22,-2,-1,-1,5
0,19,-29,-9,-5,-5,-13,2
-3,1,90,41,0,-5,-82,3
-4,2,-87,-2,3,1,74,17
41,-43,18,-2,1,0,30,-6
-24,-19,-50,-4,-2,-6,-20,-11
-39,4,46,-45,-22,-7,-7,1
-9,17,90,23,1,7,20,12
25,4,46,37,17,3,10,-2
27,23,127,-8,-6,-3,-8,-8
-9,-65,-128,6,-17,-8,6,8
-12,8,40,-29,4,0,-44,-19
2,2,58,-16,12,4,-18,-9
0,33,60,1,-4,-2,15,4
5,-3,-32,-3,-6,-8,-3,12
7,-9,9,-10,-3,3,21,13
7,3,54,-32,-6,3,16,7
-11,12,-25,43,6,-4,-1,-14
-12,3,96,-8,-1,-2,-6,-20
-5,-14,52,5,-5,-9,-31,-11
-11,8,-5,-34,-6,4,-8,-2
8,-44,-128,-21,-7,-2,12,0
25,60,127,35,2,0,-7,-1
-28,-30,24,19,3,-3,-37,-6
-21,-72,44,-30,-10,-11,31,26
-19,-6,9,2,-1,3,33,7
-30,12,100,-5,-13,-9,-66,-43
-7,11,20,-11,-2,-1,-36,-27
39,72,127,42,25,5,23,21
22,17,-93,-4,7,0,26,22
-12,-120,-104,-59,-17,-3,12,-6
-39,5,127,-19,-24,-25,-64,-32
12,76,95,39,-1,4,17,8
8,-9,48,-6,3,-1,-35,12
8,-2,-36,-31,0,4,21,10
0,18,15,59,10,6,5,-16
-6,21,54,14,0,-5,11,-2
-16,-27,-128,-25,-13,-12,17,-4
-3,-16,-64,-10,2,7,-14,-2
-11,-1,24,-9,-5,-5,-1,-8
5,2,5,-13,-4,-1,-4,1
5,-1,3,10,-9,-4,0,6
5,-24,-49,6,3,1,-23,7
2,-4,-11,-5,15,6,4,9
-11,3,-37,12,-5,0,33,3
12,-10,26,-22,-1,0,5,17
-1,18,-20,-15,7,7,10,-12
-18,-45,-11,-17,-10,-20,-69,-38
7,-64,-110,-6,-8,-4,-19,-16
-11,-15,105,6,-1,-3,18,24
-4,14,33,10,-6,-5,-21,5
-12,-34,-128,-10,-4,0,53,-9
-2,9,25,7,0,4,-17,4
10,26,41,-9,-2,3,13,11
-6,18,47,19,4,-5,-14,-31
-2,-39,-128,-28,-3,-14,-47,-4
4,33,38,13,-3,14,9,5
18,46,43,31,-3,3,25,9
-4,-37,-11,-7,-2,-10,-27,-3
7,-11,-71,24,3,2,-5,4
-14,13,-109,-18,-11,1,-19,-7
1,-11,103,16,1,0,29,10
3,26,-94,16,1,-2,12,0
14,-2,2,-12,-2,2,-6,-3
-25,-2,-24,-1,-2,-3,-30,-11
11,-17,-128,-70,-8,-6,-12,-6
-4,6,1,-9,-10,-10,0,-2
15,25,115,12,15,8,12,17
-2,-39,60,47,2,-2,10,15
11,-45,-128,-47,9,3,-33,-4
-24,32,127,-31,-16,-4,42,-26
-14,5,61,-2,-4,2,12,-16
11,3,-3,16,-3,-5,-26,-8
-1,-3,-18,53,13,4,14,8
31,9,2,4,-4,-8,-75,16
-4,5,37,-23,-3,-4,74,3
-27,-82,-103,2,-2,4,5,-13
-13,-7,-128,-12,7,5,-11,4
10,12,127,-33,-22,-7,12,26
-7,12,27,8,2,-4,12,-4
14,15,102,13,15,5,1,-2
15,-11,-128,-55,-4,1,-30,-13
14,-22,-101,49,-5,-4,-5,4
-24,-2,46,8,-4,-5,-1,-6
-10,11,23,-2,-8,-8,-43,-5
-24,12,21,-36,-5,3,12,-21
-25,-23,-14,52,15,-6,-12,-18
-6,17,52,-60,-14,-9,-29,-10
13,21,-85,28,-2,2,17,12
5,-43,38,-22,6,1,26,9
-1,22,62,2,0,-1,7,8
-2,-30,-128,-6,-8,-3,-16,2
4,-32,-16,-5,-9,-8,-5,-1
15,-2,98,22,-2,-1,-23,-2
-3,55,-117,0,-3,-1,33,6
-4,-22,55,24,12,4,14,11
11,5,26,-37,-1,-4,-14,2
-17,-22,-128,-6,-4,7,-2,-12
-21,-13,52,25,-6,2,5,-12
5,3,50,25,10,-8,-12,-9
5,21,12,27,4,-5,-51,-12
10,19,18,3,0,3,-5,1
-19,-19,-3,-6,-6,2,73,5
3,39,18,-5,-2,4,-2,15
-14,-37,13,15,8,6,20,-1
14,19,3,2,-2,-2,-52,-23
-3,-3,-124,3,3,-4,-18,-18
-11,-30,109,-25,-7,-5,-12,-3
-17,8,-1,-1,-9,-6,-18,-4
17,25,101,3,-2,-4,39,28
14,0,-24,-14,3,5,-7,13
-19,-51,-79,-20,-4,-1,-42,-39
-25,14,100,17,6,-5,11,-13
9,34,56,1,-1,-1,-12,1
13,58,49,-19,2,3,11,16
4,-10,-78,-8,1,3,-5,8
4,5,60,66,-1,1,43,8
-13,-10,20,-4,6,-8,-94,-39
10,-32,-128,-14,-1,-4,-21,8
-7,-31,61,-31,-12,-6,-15,-19
-6,35,127,16,-8,-2,9,-2
4,12,29,27,13,3,15,8
4,5,4,-5,3,4,13,4
10,-7,-128,29,8,4,5,2
5,38,127,48,7,5,7,2
-36,-55,-128,-58,-10,-11,-7,-9
-8,-50,-41,-45,-18,-7,-1,-1
-11,10,71,9,2,0,8,-4
10,20,25,-1,-9,3,3,7
-1,6,14,9,10,-6,-2,-6
5,31,23,20,8,-3,-37,-20
17,-7,41,7,11,10,14,16
29,1,-50,1,1,1,8,13
-26,-24,-98,-20,-15,-13,-40,-16
-24,0,-4,-29,-10,-8,-21,-20
-16,23,10,12,-12,-9,-4,-19
6,20,28,11,-3,0,56,6
30,19,72,4,19,22,3,16
21,-62,-128,-23,1,-3,-1,16
-16,-91,-128,-50,-17,-15,-49,-12
-43,65,127,9,-16,-18,-1,-16
-6,-6,44,-4,-4,-1,1,-5
1,13,11,3,-8,5,5,-8
13,6,7,26,1,4,6,10
14,22,14,19,26,11,6,-3
-25,-46,-110,-9,4,3,11,-20
-6,33,93,-3,0,-9,-33,-11
-11,-81,-128,-28,-10,-3,0,10
11,-25,89,-11,-16,-4,8,13
-18,26,61,30,8,10,26,17
-7,12,86,25,-1,-5,-7,-37
9,20,-124,-7,12,4,-20,-4
-3,5,100,10,-19,-11,-26,-5
-24,-25,-49,-15,16,6,7,-8
18,-10,-31,-14,-10,-9,-7,-1
-7,25,9,7,0,10,33,35
11,42,91,1,-13,-1,25,19
-3,-62,-53,-39,-12,-1,-56,-37
-29,-9,-50,2,-2,-9,-35,-37
-19,21,-39,29,6,-2,-23,-4
1,7,17,7,0,3,51,16
5,45,127,-7,1,7,36,12
-8,-101,-128,-25,-9,-3,11,4
9,21,127,-16,-14,-6,4,10
-5,5,34,34,13,-3,-40,-3
20,38,-6,-1,-5,-5,-1,1
7,-21,41,52,10,6,34,-11
-17,-43,-128,-74,-16,-8,-14,-3
7,-9,17,-37,0,4,-1,8
5,26,109,41,-4,3,20,29
-31,-65,-104,-73,-2,0,0,-10
-16,-43,-26,19,-2,-4,-23,-30
-13,75,33,-42,-1,1,-33,-20
21,3,-66,23,2,-2,0,15
15,-12,-16,27,-1,-11,-9,1
-1,11,1,9,0,4,12,7
-3,7,-66,-4,1,-1,-4,1
-3,-14,14,-7,-6,-2,0,-1
-2,6,127,32,-2,-5,2,-2
1,-6,-104,-26,-4,1,-7,2
-25,-39,61,-41,-19,-9,-9,-8
-1,-4,117,10,-5,-6,-21,2
13,6,38,6,10,-3,1,8
-10,27,12,10,9,0,6,-9
-6,35,-22,0,7,4,2,4
0,-21,18,-13,-12,0,2,0
3,-10,-6,46,7,-8,-31,-9
-2,-13,-30,-31,-3,-2,1,11
0,-9,70,34,8,0,4,-3
9,39,7,25,-8,-1,-2,-1
-17,-31,-54,5,2,-8,-12,-26
-10,-53,-128,-63,-7,-1,-20,-21
-11,4,20,-9,-9,-5,7,6
22,19,66,22,-1,6,-4,17
35,20,111,6,-1,-4,4,26
38,19,38,0,-8,-5,23,8
-49,-30,-39,-20,4,-5,-27,-27
-19,27,100,46,8,4,3,-21
-20,-89,-128,-38,1,4,-5,-5
0,-4,-122,-6,-8,-7,-5,3
-6,12,127,-9,-11,-9,-29,-6
6,-6,-128,-13,-7,1,75,5
-4,3,30,-24,-19,-2,-29,-9
-1,3,-5,40,15,2,0,-3
4,16,110,43,4,-6,7,4
-7,-14,-128,4,-8,2,-4,-5
2,2,82,1,-3,0,-3,-5
0,2,15,-40,7,1,8,3
11,16,12,-30,-5,0,2,17
-6,4,14,17,-3,-6,1,-14
-5,23,127,3,-4,-1,-35,-27
-2,-59,-128,-17,5,-8,-25,1
5,7,127,-21,-13,-4,3,-9
-1,-16,-14,-16,0,3,15,5
6,2,9,17,-8,0,2,10
-8,-36,-128,-4,4,-5,-9,-1
-17,25,23,-31,-5,-3,-19,2
18,11,32,41,16,11,63,6
-7,-58,-128,-14,-9,0,4,-11
-43,48,18,-22,-21,-23,-53,-32
8,3,48,-3,6,-4,-7,1
14,40,72,14,-8,0,-1,4
-14,-36,-29,34,9,8,10,2
-1,-46,-128,-22,-8,-13,-8,-6
19,-36,-89,-68,1,6,4,8
-10,34,127,1,-6,-3,1,5
-12,-90,-29,-9,1,-8,11,0
-8,1,6,-4,0,-2,-26,-19
9,-39,-2,-65,-13,-5,-10,-1
14,12,15,70,14,5,4,16
-9,17,-40,7,9,0,14,0
-9,-21,-20,-61,-8,-7,-13,-4
14,-8,127,3,1,-4,1,-12
-5,28,-15,49,3,4,-15,-6
-12,-13,-128,-31,-3,-2,-7,-15
-6,-10,25,-14,-3,-1,14,8
36,-10,-128,17,14,10,23,19
6,32,75,7,4,0,14,-2
-31,-19,-35,16,-21,-8,-44,-25
9,-21,127,-18,-2,-6,-3,-1
32,33,-58,7,5,0,-1,14
-34,9,-106,6,4,-1,-53,4
5,-18,60,-21,-7,4,43,13
-11,121,-31,8,-9,-5,31,-8
9,53,122,25,5,3,-9,-9
-24,-76,-128,17,5,-5,-13,-27
-7,4,18,-7,2,-1,-31,-6
14,38,127,4,-2,3,11,14
-18,19,-128,-36,-5,1,4,1
-2,-49,-54,17,-8,-9,-24,-5
-13,-7,127,-29,-3,-5,11,-2
8,5,42,4,8,1,-23,-1
16,15,68,0,11,5,8,6
4,39,-13,23,-1,-3,1,1
-4,-20,-9,-6,-3,-1,-43,-1
10,41,-31,-29,-3,0,9,-9
3,-7,127,43,-8,2,40,5
-9,-99,-128,-58,-3,-8,-9,0
19,20,85,22,7,1,-3,14
1,53,110,4,-2,-6,-35,-5
-16,-50,22,-2,-7,-9,-28,-25
-11,25,19,-37,-3,8,40,-14
11,44,69,-10,-4,1,3,1
-5,-25,-31,-22,-11,-4,7,2
13,-15,17,12,2,4,16,12
0,-24,-128,30,25,0,-28,1
4,27,73,26,2,2,12,1
-30,-50,-128,-24,-6,-3,-35,-20
-4,5,83,-36,-14,-11,-14,-8
7,22,70,31,-1,-1,3,9
9,-39,-16,-39,-6,5,9,15
-8,23,67,17,-3,-5,1,-4
-11,10,-29,-33,2,1,-6,-13
2,5,-22,-3,2,2,11,2
32,12,-56,18,-1,-3,-9,19
-13,-43,21,11,6,10,-21,-9
-9,67,27,-8,2,1,44,-4
1,-28,-20,-6,-5,-4,-23,-12
-28,26,97,-10,-15,-2,8,2
-22,-16,-128,51,29,3,2,-8
4,-14,36,-39,-4,2,11,-1
-15,-128,-128,-29,-14,-4,-48,-10
-1,2,54,15,1,-4,15,6
3,33,96,-1,-7,-14,-60,-26
-2,9,17,-1,-4,-2,-6,-12
10,-4,40,-11,-1,7,16,12
9,25,-21,42,4,6,14,15
5,37,-25,0,7,-5,2,6
-15,-33,-128,-19,-3,0,2,-4
1,-3,-43,-17,7,0,7,3
-29,-24,75,11,-16,-24,-36,-24
-6,-8,34,6,-13,-4,10,11
6,39,26,-7,-11,-1,61,0
17,4,127,0,14,-1,-5,8
6,-27,-128,-18,11,4,-13,1
11,-9,48,-28,-8,-9,6,2
-28,-15,8,29,-5,7,-34,-24
8,-42,-82,-16,2,-2,-25,-5
11,29,-50,-75,-14,2,27,11
-36,10,68,46,-6,-1,11,-6
-4,24,42,35,14,-3,-36,-18
4,41,63,13,4,-2,-4,-17
-20,-101,-128,-34,-5,-4,-4,-7
-11,-30,10,-51,-23,-9,13,18
-18,-3,-87,-6,-8,-3,-2,6
18,26,27,-5,2,-4,-10,11
7,22,24,9,0,1,22,2
6,9,5,12,2,1,1,-2
-2,14,-15,-2,4,2,-34,-10
10,-13,-7,8,-5,5,1,30
9,12,83,19,15,14,126,10
-8,8,-107,-14,13,1,-40,-27
-26,-61,-128,-38,-6,-9,-56,-40
-9,-1,77,10,-7,-10,-16,-3
-3,33,73,7,-9,-3,-9,-1
15,29,112,-6,-16,-4,2,5
-15,-47,-128,-68,-14,-10,5,5
29,11,122,56,26,19,25,43
-26,20,127,101,23,13,13,-11
-22,-68,-128,-81,7,-8,-54,-26
-23,-6,127,1,-9,-6,-8,-11
-12,-24,26,-28,-16,-12,6,-7
14,10,80,-15,-21,-11,3,3
10,-1,3,10,1,2,-6,0
12,43,-1,-21,3,2,7,12
-28,-15,-97,20,3,3,6,-1
-9,-33,-20,29,5,-2,11,0
-4,127,12,-12,-5,-4,-10,-6
4,17,-7,-11,-6,1,-18,-4
-5,-18,-25,15,-1,-1,22,-10
-16,2,-17,6,7,-2,52,5
26,16,57,21,-2,-4,-31,-10
20,16,65,-4,0,-1,-1,-2
-19,-72,-128,-99,-2,3,22,13
-17,-29,110,-8,-6,-3,-30,-19
15,6,-92,7,2,-2,-24,2
-44,-60,-128,-40,-13,-12,-53,-21
-8,16,34,18,-8,-7,19,-11
12,28,67,11,6,6,20,8
5,45,10,16,-3,-3,-14,4
-6,-107,-116,-30,0,-8,-19,7
1,-7,115,17,-5,8,39,-1
1,90,127,-10,-9,4,-24,-5
-12,-81,-128,49,15,5,64,10
-10,-35,113,-26,-1,-5,9,0
-12,-7,72,7,-8,-8,-32,-17
15,35,33,-7,-5,3,4,10
10,4,7,-39,-13,-12,-14,-3
2,-18,-21,57,7,4,0,5
0,-8,-63,-45,6,3,-11,-15
-11,3,-27,1,0,-1,-3,-18
-5,11,-29,12,-2,-4,-9,-12
-9,-10,11,-5,-9,-8,-17,-10
21,61,-9,-8,-9,0,14,13
-7,-55,12,40,-5,-5,15,10
1,112,8,2,6,-3,5,0
-4,-63,-121,-37,-1,1,1,-3
-17,-65,-128,-44,-14,-3,-14,1
-17,-17,127,0,-7,-6,11,-6
-3,23,-20,-1,-13,-4,9,-7
-4,-54,-22,11,-9,-7,-21,-9
-5,52,-51,17,8,5,-8,6
7,-29,2,12,9,7,52,-1
25,-19,39,24,8,7,-13,6
14,-10,42,2,0,-1,106,30
-16,-12,-128,-65,-21,-14,-46,-21
-12,16,54,29,-4,2,-16,-14
37,19,79,-27,8,3,-9,0
45,-15,-108,-76,-6,6,-1,31
-17,-27,-88,18,-12,3,6,5
-5,10,116,56,53,5,26,2
-13,-3,8,-6,0,-7,-29,-18
-20,-1,32,-59,-23,-9,-14,-22
-6,-55,57,18,-13,-11,-14,-10
-4,106,4,-6,-7,-4,3,-1
9,-3,12,56,17,4,-18,2
-11,2,0,-19,5,8,57,4
16,79,46,10,4,9,9,4
32,45,52,3,-3,-1,1,12
-5,-42,-128,-11,-5,1,-11,-5
-8,19,-10,-15,-14,-11,-11,1
10,-31,38,-4,-6,-9,-8,-4
-3,-11,55,-35,-8,2,-2,-8
19,61,84,41,7,5,10,-9
29,-22,-102,31,19,11,-8,24
-15,16,127,-23,7,-3,-49,-16
-16,-46,21,-54,-24,-5,15,-7
-14,-11,-128,25,-4,2,34,12
-24,-14,-19,-21,-11,-12,14,0
9,-5,52,9,-6,-8,-18,-8
-3,20,86,-6,1,3,-2,-15
16,70,127,33,6,-7,-60,-16
-9,-73,-128,-17,-3,-6,-18,-1
-17,23,127,-49,-15,2,21,4
20,-15,49,0,-6,5,4,3
26,26,111,48,7,2,17,8
-12,2,-54,-39,-5,-6,-37,-2
-14,4,127,-1,-6,0,-5,-2
-10,53,1,36,12,4,0,-7
0,-43,-128,-32,-4,-2,5,1
23,0,93,-19,-14,-1,9,4
-9,75,4,22,-7,-10,-12,-20
3,-23,48,25,15,4,-22,-3
-1,39,-51,26,6,1,3,20
-18,-1,4,-26,-4,0,21,9
-7,-49,-60,6,-10,-3,-9,-10
10,-1,-51,4,4,8,-24,-16
-15,69,-69,-34,1,-8,44,-7
12,-38,72,8,0,-2,1,8
-16,-44,-128,-39,-16,-4,-35,-20
-5,-52,-58,10,-1,4,12,14
39,58,127,29,7,-3,16,23
-4,59,13,6,-9,-6,-56,-4
-17,-80,22,-55,-14,-5,33,-8
-15,48,17,31,2,3,-12,6
3,-9,-32,-19,15,10,-14,-11
5,12,-53,-1,-5,-1,5,3
-4,7,22,-24,2,3,2,7
7,19,32,2,1,0,5,17
-17,-51,16,6,1,4,14,-10
-9,-6,41,-44,-13,1,-39,-26
8,1,-15,119,3,-6,-8,6
-4,1,-8,-22,30,-4,-8,-7
-1,-45,96,-35,-12,-7,-7,0
2,-105,-128,-60,-10,-6,-7,-4
22,46,127,-7,-9,-2,-3,-2
-3,-59,-83,-14,-12,-2,-4,-6
-6,51,22,42,7,4,3,6
15,47,-32,13,11,2,-10,24
23,-1,-11,-12,-4,-1,1,7
14,1,48,6,-13,-1,-3,4
-24,-10,24,2,5,-5,-32,-20
-14,-5,-10,-12,1,-1,-2,-14
2,9,56,-3,-3,0,-1,5
17,7,37,16,0,-1,10,11
-11,-70,-95,-19,-1,-1,4,9
0,-8,-128,-7,-7,0,-25,-7
3,19,30,-8,-6,-3,0,-13
5,54,127,18,-4,-3,-6,0
9,59,127,47,1,-2,-14,-2
-21,-128,-128,-61,-3,-8,67,4
-23,-33,127,0,-9,-10,-37,-5
-4,16,-15,-7,-4,-4,-32,-7
7,7,127,16,6,7,22,10
29,64,52,26,11,0,18,6
-24,-38,4,-33,-5,4,-1,-10
-5,-42,-30,-17,5,7,8,-2
-4,33,13,7,-5,-5,-22,13
19,-81,-25,0,3,-4,-9,2
-16,28,44,-6,-9,-6,-14,-21
-11,24,-33,-5,-1,-1,-1,-4
-7,4,-1,37,7,6,10,2
4,33,97,35,4,6,-1,5
-28,-102,-128,-58,-24,-13,-11,-16
-14,-22,-49,-43,3,-11,18,-7
15,-1,-1,-19,-1,-3,4,10
10,2,101,-49,-13,1,20,19
-12,39,84,18,-14,-1,-23,-21
11,18,50,96,46,7,-35,-14
-6,-53,-128,-18,-9,-5,-2,-6
-5,45,107,9,1,-1,-20,-1
-8,-2,-37,-63,-15,4,57,17
38,-35,-50,12,-8,-6,-22,5
-18,-49,-3,-28,5,2,-9,-10
-15,31,85,-2,-8,-2,8,-13
-8,21,7,6,-6,-10,-24,1
1,3,-18,-5,3,0,2,2
-6,15,-46,-39,-10,-4,-13,-4
16,27,-18,13,-1,8,12,13
-3,-5,3,0,6,5,17,16
-3,-19,5,1,-13,-10,9,-4
15,-50,-66,6,12,-3,-39,-27
-23,52,127,-11,5,-4,-59,-33
-23,-1,-31,3,-3,1,-22,-4
-15,4,-67,-54,-16,-4,-16,1
19,-105,-19,33,-10,-6,39,7
4,-22,127,2,6,4,6,11
15,18,58,-10,-14,-2,-8,3
-17,10,46,45,-6,3,-5,-4
-35,1,5,17,14,-1,-3,-4
-4,13,2,16,16,14,3,1
7,27,29,-3,4,-4,1,2
16,6,69,31,6,-3,-18,9
4,-13,41,-104,-15,-12,-11,-4
-9,-7,-1,-12,-28,-15,-7,-19
-15,-71,-128,4,24,3,3,-6
0,-51,127,-23,-6,-10,-7,-7
-11,47,3,3,-5,3,-1,-1
-4,27,-12,2,3,1,-5,4
41,23,11,-40,-16,-4,0,12
-2,-27,57,90,-5,-9,27,6
-4,33,56,28,20,7,-32,8
-49,-94,-128,-53,-5,-4,-43,-22
-1,35,127,-25,-8,0,33,-5
-4,-44,-128,-5,-8,-7,1,-3
-5,9,127,-20,-3,0,-15,-9
5,23,72,10,-1,-3,-23,-4
2,-4,5,-3,-5,-1,-7,-1
10,13,-5,6,0,3,53,17
4,8,-10,-6,5,0,-11,3
-4,14,-100,0,-6,-7,5,-12
10,-2,127,-51,-7,-11,-35,-14
-32,0,9,45,-4,2,-8,-6
-17,-56,-128,-65,14,2,0,-3
-9,30,83,9,5,5,2,6
41,3,-4,-7,1,2,10,5
-16,4,105,24,5,0,-8,-14
-27,0,17,-14,12,-5,-20,-11
4,50,63,55,6,-4,1,12
-39,-63,-128,-34,-11,-9,-8,-9
15,18,87,-37,-13,-6,-6,-2
6,13,127,20,-2,2,-9,-4
-7,-31,-40,-1,2,10,2,5
-24,-35,-128,-39,-16,-2,44,-3
11,27,127,4,-1,-5,-2,-1
-18,0,50,12,-2,-7,-19,-22
23,34,40,-16,3,6,21,27
14,23,-12,25,-8,4,19,18
17,-7,-128,-11,11,-6,-27,3
-3,5,77,-33,-6,-6,27,-37
-6,-45,-40,-18,-10,1,-1,-9
-12,10,-34,14,-2,-4,-25,-1
-3,48,-6,8,0,2,0,-3
0,-52,5,5,-1,-3,0,-11
-10,-13,8,-5,-2,-4,-11,-3
7,11,43,21,5,2,1,17
-34,-32,-128,-17,-10,-8,39,-9
-18,-3,54,-49,-12,-6,-61,-29
19,4,4,20,11,3,6,12
33,-36,-128,-29,-8,-2,-6,22
-7,-13,63,-22,-1,4,19,13
-11,22,-56,-17,-4,-4,-5,-6
1,40,127,-44,-20,-1,-15,-21
8,2,-74,76,11,-1,-18,-21
-18,16,3,-20,20,1,8,5
-3,2,-27,-33,-5,-2,6,7
6,-16,55,-16,-12,0,3,5
7,27,126,33,8,0,7,3
26,13,-20,-39,-3,0,15,25
-41,-47,-128,-52,-10,-4,-26,-20
-10,-16,20,14,-2,-2,43,-17
-6,-17,42,-19,-14,-10,-14,-8
-26,9,58,-3,3,3,-3,-11
-13,-4,10,0,3,3,5,1
14,9,-40,10,1,4,22,14
40,-51,9,1,-2,1,-41,23
25,40,66,67,13,-6,-20,7
-20,13,4,2,4,-2,-6,-11
-20,-119,-128,-83,-15,1,34,-4
-4,45,127,8,-6,-7,1,-6
-33,-53,-72,-34,-17,-3,-20,-19
13,10,20,56,6,-2,-4,6
1,17,3,-67,-4,2,2,7
17,35,102,65,-5,-2,10,12
3,14,-96,9,13,-12,1,-2
27,-7,25,2,-8,7,-7,20
-64,-34,-128,-26,4,4,3,-18
2,-11,-16,-17,3,6,3,-2
-6,-1,78,-6,-8,-6,-3,-17
6,12,77,-26,-15,-8,8,7
25,-1,-68,1,-11,-7,-43,-6
8,13,-35,24,9,5,-25,-6
-1,-30,-128,-18,6,5,44,10
-23,11,127,8,-12,-8,-10,5
-29,19,6,-17,-6,-5,6,1
13,-11,-128,18,0,-3,12,-13
-13,-10,-29,-2,-3,-3,-35,-14
-12,-21,50,-14,-7,0,38,-11
8,25,-33,6,4,5,8,11
-10,8,127,34,2,-2,-6,-5
10,-22,-6,-51,-13,-9,-10,0
-18,24,34,17,-1,-1,5,-3
6,-33,-128,56,20,3,6,3
7,-10,43,21,8,1,3,13
-10,10,-81,-7,-10,-3,-8,-23
12,-9,70,5,-11,-7,-20,-14
41,17,57,-97,-7,1,5,17
-40,-10,-41,31,-10,-8,5,-6
-25,5,-24,38,27,9,0,3
15,41,21,4,0,2,9,7
14,40,127,16,4,-3,7,0
1,-61,19,-15,-7,-2,-23,-16
-4,-33,95,-27,-14,-3,4,6
8,54,88,8,-2,0,-34,2
5,21,71,-6,1,14,41,10
-10,-17,-40,-15,-11,-10,41,-13
5,18,77,18,4,-6,-6,12
16,-15,-128,39,12,-4,-3,8
-44,-21,7,-30,-6,-3,-20,-23
4,8,35,-4,-4,-2,-19,-16
43,-28,67,-55,-11,0,0,1
-16,36,62,44,-11,-1,3,0
0,35,-10,48,6,-5,0,9
-42,-95,-128,-54,19,9,10,-5
-10,-6,127,-5,0,-1,4,-5
6,12,127,-26,-11,-2,3,0
9,16,-56,78,3,-5,7,13
14,9,47,-57,-4,1,-16,3
-3,20,-4,31,5,4,0,-10
-7,0,17,-28,9,0,-8,-12
4,-8,42,23,7,2,-2,-2
6,8,-88,-1,-6,-1,-15,11
-13,14,55,-47,-9,-1,-25,-12
-22,-21,-128,10,-6,-5,82,-10
29,-40,1,-52,0,0,-7,14
-2,-5,27,11,-9,-3,-6,21
16,82,2,20,19,8,21,19
-15,-4,45,-24,-2,1,-1,-25
-4,58,127,17,-19,-8,-20,-15
-35,-128,-128,-46,-5,-3,-5,-29
11,47,127,-19,-10,-12,-43,-8
-22,10,61,6,3,1,10,1
9,-1,30,5,2,-1,-5,15
25,17,7,-12,-23,-6,-1,14
3,15,10,-2,-3,6,12,16
-37,26,127,16,31,7,15,0
17,-38,-43,-16,2,-5,-41,-6
-6,-17,-73,-19,-10,5,63,0
-11,-4,127,-19,-12,-14,1,-11
-4,-11,-85,-19,-21,-14,-20,-16
5,29,43,25,-2,3,7,14
12,32,-28,15,22,9,3,10
20,-10,75,-11,8,0,-10,-5
13,56,87,2,0,3,-12,6
-3,-78,-128,-49,-22,-6,7,-1
-48,11,-36,99,2,-5,7,0
-31,-14,11,-50,9,-6,-2,-24
20,-12,33,1,-9,-7,-43,-1
9,14,22,-21,-1,-2,-2,3
-26,4,-117,-6,8,-2,4,-7
0,1,-71,-17,-6,0,4,-4
-11,-23,69,9,-21,-7,3,-1
5,11,9,16,3,-2,8,15
3,10,9,-8,14,6,11,10
3,22,8,-8,2,2,-1,-2
5,-23,-38,-30,-9,-4,-22,-7
-17,-57,-128,5,-1,-14,-11,-20
-9,-10,122,-2,-6,-3,5,7
4,4,-1,-47,-16,-5,-26,-5
-7,2,34,27,1,2,-3,-5
1,17,27,-19,15,-1,2,5
4,33,0,65,4,0,-13,4
-12,-48,7,1,-3,1,6,3
9,-27,-59,-31,1,6,74,28
9,56,-12,-27,-6,-4,-15,-12
-21,-12,-71,3,-1,-8,-76,-35
-41,-18,91,-18,5,-3,-38,-27
0,31,88,-25,8,11,11,14
11,-34,-128,14,2,0,15,12
-10,-49,-128,-39,-2,0,2,8
16,56,127,24,-2,0,17,12
-5,-29,-128,-36,-9,-5,2,-3
-8,-92,5,-13,-15,-7,-3,-6
-16,39,69,-4,11,0,-7,-9
10,50,80,-16,-13,-2,-2,5
7,17,17,63,24,4,2,-1
10,-10,56,59,14,-2,-10,-7
-1,-24,-128,-30,-2,2,-1,-4
-21,-21,-4,-53,-1,-4,-13,-14
-5,40,70,-31,-9,1,35,-5
14,5,-2,22,-8,1,0,11
-33,-5,-34,-9,-7,0,5,-4
8,9,23,-3,-5,-1,10,3
6,-9,52,25,13,3,-36,2
-12,-62,-128,-13,1,2,-4,0
-4,26,4,-15,-6,-8,-15,-5
-8,-16,82,-8,-15,-8,-23,-15
-7,-7,33,3,-2,-2,14,-2
-24,18,44,-2,-4,1,11,0
29,13,18,-3,3,2,7,8
6,15,94,42,5,5,2,2
7,49,-127,30,10,-2,-32,0
-3,-79,-107,-86,-20,-10,-15,5
-17,-33,-61,-65,-15,-4,-10,3
-9,54,93,-6,-5,-4,35,-12
-7,-95,43,110,10,-5,-1,-6
9,55,85,23,22,2,11,-3
6,40,-51,-45,-2,1,-24,0
-8,-18,-108,28,1,-3,-10,-15
-31,-19,0,-26,-10,-7,-7,-19
-14,0,100,-11,-3,6,-2,3
28,24,123,7,-9,0,10,9
-24,-10,-37,-2,4,-4,8,1
-3,1,-86,-16,-2,-10,3,-4
5,-7,-30,8,-1,-4,-14,1
-30,8,58,15,6,2,2,-2
20,-52,-52,-12,-9,-1,3,7
7,20,-86,-66,-7,-2,-28,-7
-1,-6,32,59,7,3,6,15
-14,6,-113,-3,-19,-13,-23,-3
-8,-6,-46,-3,11,5,40,-8
20,14,51,1,-8,-3,13,13
14,10,104,4,4,4,1,7
-1,4,-128,1,-4,-1,-21,-5
-2,-21,112,-12,-3,2,28,-1
-8,9,67,-10,-3,-5,-50,-8
-22,-16,-5,-3,-7,-8,-20,-7
-1,5,47,24,-10,-9,-6,-8
-24,20,69,16,10,2,8,-4
23,-24,-128,-38,4,1,-2,0
10,9,60,-4,0,-2,-2,3
-11,-3,-128,17,-2,1,14,3
-17,-18,127,-20,-6,1,7,3
-1,-13,5,-11,-9,-1,-1,7
-9,20,24,9,0,3,-2,-3
2,7,61,0,0,-3,1,-17
20,17,62,13,1,0,-2,0
-12,-33,-128,-21,-4,-3,5,-5
-31,24,127,-13,-4,0,-4,-14
-2,-7,75,28,-2,-2,-23,-8
2,-77,-51,7,-6,-4,-3,8
-2,-1,-105,-38,-9,-2,15,3
11,10,127,-12,-1,-3,9,18
9,52,37,4,-5,-4,-38,12
-4,4,74,27,2,-1,-3,-20
-13,-53,-128,17,-6,0,3,-21
6,-6,127,-23,-8,-6,2,-5
-15,11,-35,-9,17,0,-10,-6
4,20,-44,-52,-7,3,-3,6
12,16,-28,12,-5,-4,14,3
21,14,67,61,-8,8,-14,5
35,16,24,41,38,2,1,26
15,-53,-128,-17,5,3,16,24
-16,31,68,-34,-23,-19,-59,-42
-39,-42,101,-50,-20,-9,-29,-44
-1,0,82,15,-11,1,19,0
4,37,117,9,-2,-1,5,6
12,38,127,44,4,3,8,12
-8,-10,-128,18,19,1,8,-3
-16,-104,-89,-57,-14,-3,-1,6
-1,-4,-128,-38,-19,-21,-39,-17
5,5,57,7,-2,5,55,0
4,15,29,11,2,5,-10,8
-17,19,16,9,-1,10,68,-1
3,21,24,-17,-6,1,0,-7
34,26,-5,27,5,-9,-12,11
-27,-1,-7,-93,-5,-1,10,18
-55,21,55,57,-10,-4,-16,-34
6,-48,3,55,44,8,-9,-2
7,-21,-128,-36,-8,1,1,5
-4,5,127,-27,-19,-8,-8,0
-8,20,82,-24,-15,-10,-1,0
16,15,5,-22,-13,0,26,16
10,-7,31,16,-8,-9,-60,-29
9,5,-51,26,36,7,3,9
-10,8,109,0,3,0,-1,-10
-8,-7,-30,-4,-3,1,-9,-12
-6,-28,127,-32,-14,-9,-6,-6
11,12,0,18,-6,0,13,13
-14,5,-120,17,0,1,-10,-9
-5,25,-32,-72,9,-3,-36,-9
-2,-2,64,40,0,2,-10,3
8,17,41,13,2,3,77,10
1,3,12,-7,-6,0,-1,1
8,8,-32,24,0,2,2,1
11,-14,-24,-23,-4,-4,-6,3
-10,-27,10,34,-2,-12,-37,-23
1,24,35,-16,9,7,-1,-2
-10,41,40,-27,1,4,3,-1
21,-43,31,41,-16,-7,2,2
-6,-63,-128,-25,3,-1,8,7
0,-17,63,-16,2,1,-9,-7
0,4,20,41,13,-7,-15,-5
-20,-15,-89,-21,-2,2,-6,-19
-1,7,113,-17,-7,-3,-4,-2
6,28,28,-6,-3,4,3,6
8,-2,-37,8,-5,-3,-18,6
18,53,88,26,1,-3,12,21
-16,-8,34,-35,6,1,20,-1
-24,-94,-128,14,-6,-6,-20,-12
1,17,34,-51,-14,-8,-43,-23
-19,25,77,81,-13,-11,-15,-4
-5,-41,-3,-13,25,3,10,-1
1,7,54,18,0,-5,-14,-10
-27,-39,23,8,1,1,6,-3
8,57,-47,4,1,10,3,3
11,-7,-4,-28,-12,-2,10,10
2,-50,-88,-4,-11,-7,0,6
2,13,84,-15,-7,1,-6,-11
-13,30,12,19,13,1,-11,-18
11,1,-3,1,-8,-11,-37,-12
-5,-5,-21,4,0,-2,-4,1
14,43,121,12,4,4,6,7
-13,-63,-128,-4,-5,-4,-28,-13
-12,-32,-128,-24,-11,-9,-14,-3
-10,-25,127,-5,-4,0,41,11
-6,44,22,5,-3,-3,3,0
3,28,4,15,-1,-5,-17,5
-11,-76,-103,-49,-17,-4,34,-8
31,46,84,-25,-3,1,-6,-4
-19,-8,8,108,26,-2,-1,-7
-23,-4,-36,-25,5,-5,3,-13
13,23,42,-17,-7,-2,-26,-1
21,17,121,45,-5,1,2,13
-14,-36,-128,-4,9,2,-6,-5
-13,-63,10,-52,-1,-3,-7,-6
8,13,89,25,3,-1,1,-6
-4,4,18,2,-4,-1,-1,1
-4,6,-47,21,1,-2,2,1
4,30,43,-19,-3,4,6,2
2,4,23,2,-4,-5,-3,-4
-3,-16,-36,-1,1,-3,-2,-4
-5,-15,-35,-5,-4,-3,-4,-4
-7,12,79,5,-6,0,3,4
10,-9,-7,-11,1,0,0,0
-1,-3,11,-5,-7,-1,-4,-2
-3,-15,-128,13,-3,-1,-24,-6
12,38,59,37,20,16,72,9
-3,28,122,0,-8,-14,-17,-9
9,-21,37,-33,-13,-11,-32,-2
-3,-4,-70,-10,-4,-1,-8,3
-19,-33,-89,-28,-11,-4,5,-10
21,62,14,-12,-8,1,1,-9
-8,19,23,23,18,12,19,4
18,27,110,41,16,-2,14,13
-8,-119,-128,19,1,-4,-39,-4
-21,25,67,-35,-12,-5,-14,-26
-1,-12,-128,-2,-13,-1,0,8
3,-22,-116,-11,3,-4,56,7
8,51,110,0,3,-13,-23,0
9,10,-8,42,0,17,-5,4
-11,-58,-90,-4,8,2,-15,-15
-10,10,-24,4,-4,-6,-13,-7
-9,-24,42,19,-5,-11,-3,-3
-1,-4,52,7,-5,-7,3,1
3,14,15,-13,1,0,-1,1
2,7,-14,-1,-4,-2,4,3
7,14,70,1,1,4,8,11
0,24,45,20,10,6,-8,4
-1,-38,-128,-27,-8,-7,1,-5
3,3,25,-34,-11,-8,-16,-12
-6,-52,29,-1,-7,-6,-16,-12
-16,-5,8,-12,-5,1,1,4
-20,16,45,31,9,0,2,-3
-2,24,9,-17,5,1,-7,-4
-10,15,-9,20,-3,1,-14,-10
30,-24,0,-1,-8,-1,17,4
5,37,24,-39,-9,-1,8,12
-20,-13,-108,22,14,-1,-1,4
-15,-9,111,-1,11,0,6,0
14,10,4,-54,-20,-3,-35,-14
-20,-26,-128,72,-1,-6,41,-17
-1,-31,61,-16,21,-8,-7,-5
-7,5,-20,-5,-7,1,-5,1
6,7,21,-6,-10,2,0,5
13,38,15,1,-11,-6,-20,4
-17,-11,72,-6,-8,-2,18,4
-18,-1,18,5,-7,-8,-10,-12
4,-32,32,-9,-10,-6,-26,-10
9,2,46,5,7,-2,-1,1
-12,-5,-47,10,2,-2,2,-4
1,28,53,-2,2,0,-5,-7
9,39,21,-11,-3,3,13,17
1,9,15,38,4,7,3,16
-13,-25,-128,-25,-7,-4,26,11
6,4,89,5,-7,-14,-22,-10
28,19,127,-25,-8,-2,-22,-13
3,5,-128,33,23,-1,7,-8
-9,-38,127,-11,6,9,12,1
-9,-29,-128,-9,-7,-3,-24,-19
-25,-21,9,-27,-17,-15,-10,-10
-7,-15,43,5,-1,-4,65,1
41,4,50,11,3,-2,-12,10
4,54,88,-12,-4,4,-21,2
-12,44,-14,39,2,-7,11,-7
-25,-81,27,-52,-12,-6,3,-9
1,-33,-34,-24,-9,-13,-8,-6
-9,45,63,22,1,11,2,4
-5,17,7,3,-3,2,0,12
35,-24,0,-9,8,0,2,12
2,1,-8,0,3,-2,-4,-5
-6,-4,-16,-23,-4,0,2,-9
-11,6,-11,21,-10,-1,11,1
-9,8,3,13,6,1,-10,-2
3,-4,14,12,3,-7,-20,-8
19,-19,50,23,-8,0,9,5
-15,-39,-128,-37,10,3,21,15
-21,8,111,-22,-7,-10,-34,-23
-26,-14,21,-1,-4,-4,-18,-16
-13,20,12,-10,-5,1,6,-4
1,11,67,36,-4,-2,1,0
0,-43,-128,-14,12,8,10,5
8,38,127,4,6,2,5,9
-2,-12,-117,-51,-11,-7,2,-9
-16,-8,-22,11,-5,-6,-15,-4
-14,-11,-78,-3,-4,-3,5,7
32,-44,51,5,-6,2,1,7
14,27,67,-17,-2,-3,-5,3
27,16,37,-9,1,3,-10,2
-22,5,-15,28,-4,-7,31,14
-13,-56,-113,-19,17,-1,8,-10
-15,35,127,2,-5,-1,-30,-20
12,44,127,11,3,1,-14,-12
18,-31,-117,-3,-4,0,-27,4
1,-77,-128,-69,-24,-14,-4,-16
9,38,127,-5,-6,-6,9,14
-18,5,-92,-61,-4,7,18,7
-2,11,-4,47,-2,1,26,18
8,28,35,31,15,11,-11,13
-6,30,127,36,18,9,-7,-27
-6,-7,-120,-8,-1,-1,-14,-10
-15,-78,-128,-44,-20,-10,5,-1
-2,9,127,-11,-12,-8,1,4
-8,-24,-18,-15,-11,-2,-1,0
5,16,10,12,-8,-5,-3,0
1,58,-18,109,43,-1,-4,-8
-5,-5,-11,-20,-2,8,15,9
16,18,-33,-13,1,3,5,5
-27,-34,-31,13,-1,-1,-16,-6
8,16,22,-31,-9,-2,-25,-4
-9,-36,-90,-18,-10,-10,5,-12
-4,18,74,12,-5,-9,-30,-11
-13,-12,77,-31,3,-7,-13,2
-14,15,-40,38,19,11,12,13
7,-14,-76,-4,-5,-3,40,0
1,-72,67,-11,-1,9,-4,-18
-17,-25,24,-14,-2,-5,-25,-13
8,18,46,12,-10,-4,-14,-12
4,10,23,-26,2,4,0,8
2,29,-6,-24,-10,-5,-1,3
-9,14,13,17,9,2,-27,-13
-12,0,-43,11,0,-2,35,-3
11,-13,91,-27,-7,-5,4,13
-9,-14,-33,-7,-2,2,9,5
3,34,-98,17,-17,-2,31,13
43,6,127,32,35,5,17,27
-14,-42,-84,-43,-7,-12,-53,-25
-5,-16,-86,-17,-9,-4,-25,-17
-23,-17,127,-16,-14,-8,-22,-8
-18,21,69,9,-4,8,51,0
11,-10,-3,11,3,3,7,1
-10,25,-32,-2,2,4,2,-3
32,43,127,-17,-2,7,10,14
-23,-105,-128,30,9,-7,-8,-11
-16,5,127,-6,-2,1,-3,-1
-5,-15,-85,-34,-9,1,0,-3
-9,3,14,-41,-12,-1,-1,-3
-5,18,45,-5,-12,2,1,2
3,35,-62,21,-4,-14,-1,-2
5,-10,32,29,24,15,9,4
13,-32,11,9,2,-3,7,3
1,-6,-128,-32,-16,-5,3,-1
-29,-4,7,-9,-11,-9,-25,-14
-7,47,43,-17,5,2,14,-7
-24,44,31,22,7,0,-43,-13
-7,-3,-91,-11,-10,-7,-6,1
25,-123,-128,-61,-14,-8,21,16
1,0,29,-3,-5,-3,1,3
0,22,73,-4,-3,1,-8,3
-1,6,21,29,3,-4,-18,-18
2,13,7,3,-1,0,11,-5
2,48,41,-38,0,-1,-50,-12
9,-6,-2,40,6,1,44,3
-14,-14,-88,25,3,-6,7,-1
-16,-11,-20,-25,-3,-9,-5,1
20,12,23,-9,-5,-1,7,11
43,-55,-13,4,-1,-2,13,33
5,-1,62,-45,-16,-5,-43,-7
-9,-33,-56,4,-16,-4,-41,-24
-17,15,-24,25,22,12,69,4
-14,-21,-35,-10,2,5,13,4
13,53,114,32,1,-4,-26,-22
9,22,-55,-5,-2,-1,10,8
7,-82,-108,-47,-14,-5,-7,5
8,-30,-63,-31,-16,-13,-15,-5
-53,8,115,-17,-6,-1,-17,-29
1,17,-40,50,2,2,2,1
7,25,19,-5,-7,-2,7,11
2,3,10,12,-4,2,0,2
4,7,-9,44,31,6,12,12
47,57,43,14,-8,1,17,15
-30,-47,-128,10,-17,1,-11,-21
-19,-12,108,8,15,-4,-19,-15
0,1,96,3,-2,-7,-5,8
27,-15,-44,-20,-11,-3,1,20
-5,4,1,-13,-6,-3,-3,-7
1,7,-44,-7,0,5,-5,-12
1,21,86,5,1,3,-3,1
-8,14,-56,6,-9,-6,50,4
-10,-38,-52,-15,-11,-11,-10,4
20,-25,69,-1,0,4,11,25
-38,-18,-103,-13,6,3,19,-9
-40,-19,-26,-14,-11,-15,-79,-63
-5,-8,8,20,1,-2,-15,-9
13,22,24,8,3,6,-28,4
0,30,23,-20,-5,1,-12,1
1,12,-26,14,-12,3,29,4
-15,-19,4,-1,0,1,29,7
20,60,13,30,20,1,22,22
54,5,127,-16,16,-2,-7,24
0,10,-39,-13,-4,-3,-30,-2
-44,-128,-128,-68,-26,-14,-42,-64
-50,25,127,-31,-24,-13,-7,-21
6,39,95,17,-15,1,-14,0
11,20,68,33,12,3,59,15
10,2,5,-2,-14,-2,5,7
9,-12,-14,70,34,6,3,3
-4,-8,-32,-13,2,5,7,3
13,36,96,-36,-25,10,19,14
30,33,78,87,28,0,-3,9
-8,-70,-128,-19,2,4,1,5
-19,-14,45,-31,-15,-12,-40,-23
-12,-13,42,-11,-15,-7,-5,-7
-3,18,74,8,-7,-6,-24,-5
1,-10,-6,8,-4,1,27,0
-7,10,-22,-23,5,7,19,11
-17,-22,-43,-1,-1,-4,4,-2
11,-2,-5,-1,-8,-7,-43,-12
23,0,-110,-1,1,2,16,6
16,7,53,8,0,6,23,8
-38,-6,83,10,-1,-19,-40,-17
-28,-7,-128,-26,-5,-8,-24,-20
4,-2,51,-73,-19,-6,-16,-1
0,-12,-1,65,10,6,65,5
13,-23,65,20,9,6,9,4
33,8,127,-8,3,8,10,25
-13,-40,-29,-21,-10,-4,-7,-8
-46,-19,-128,-13,-20,-22,-16,-22
8,12,90,33,14,6,1,0
9,10,-4,-24,15,8,0,6
1,14,83,3,-5,-8,-56,-5
-6,39,31,7,-7,2,17,2
-2,5,-8,-8,-16,-3,2,-3
10,8,-67,-21,-6,0,0,15
-5,-95,-128,-10,4,-1,-5,4
-19,9,-14,-55,-17,-5,-9,-18
7,-8,87,37,4,3,-3,-7
-1,16,84,20,7,1,7,8
7,26,44,17,5,3,4,2
13,23,18,-27,-2,1,2,5
0,-21,-77,29,-15,-9,-21,-5
1,9,-30,-13,32,4,-9,-7
21,10,-32,12,6,4,35,11
-7,4,6,20,6,1,-19,4
-5,13,9,-9,-10,-8,-6,5
5,9,-16,-21,-12,-1,46,9
-7,7,-20,5,-4,-1,-21,-10
-19,-23,-9,10,8,-5,19,-21
-4,-47,37,-26,-19,-19,-48,-22
-16,-10,-128,-33,-6,-5,-2,0
26,12,37,-6,-2,3,5,20
11,0,-115,-4,-8,-4,1,15
-12,53,49,22,4,0,-2,-9
-6,-17,91,-22,-17,-5,13,-2
21,11,127,70,12,10,-3,2
-3,-37,-128,-62,26,5,3,1
-28,-13,100,-31,-11,-3,-2,-9
5,-11,106,-72,-23,1,10,9
11,-1,-11,127,18,0,5,8
2,11,-8,-3,12,-1,17,13
2,27,-14,3,-8,0,-17,-9
-9,-28,-8,-12,-1,3,18,-18
-11,12,20,-22,1,-11,-106,-43
9,7,-20,16,-2,0,-2,-9
-13,14,-23,7,-5,0,-2,3
11,-8,-37,-52,-8,-4,15,19
-10,13,75,14,2,6,32,20
-14,-5,-24,11,9,1,22,2
-11,-71,-128,-54,-16,-3,-33,-2
5,64,106,7,-7,-3,7,-2
4,-8,51,18,0,-7,3,-7
6,32,77,72,-7,-5,-16,-10
10,12,-102,-55,11,0,2,10
-4,4,57,-5,-2,2,14,4
-21,8,-9,47,13,2,3,2
-4,-52,-128,12,-7,-5,-7,-6
20,8,35,-26,-2,-2,-19,-7
-19,-111,-128,-55,-16,-7,-28,-12
-7,39,49,-17,-13,-1,29,4
24,-7,-32,31,-3,-5,-9,13
-3,14,7,23,17,2,-18,-7
9,17,-10,6,4,4,-22,7
-7,61,116,8,-6,-5,27,-27
0,-19,36,-18,0,7,7,-1
-8,-77,-128,-21,-5,-6,2,5
-4,5,24,-26,-5,-6,5,7
-17,12,-32,7,-15,-6,8,-9
5,8,32,13,0,-4,-21,-6
6,8,7,-10,12,4,-9,14
-16,1,-8,-2,-4,-1,-1,-4
8,12,81,-33,-17,2,-1,2
-2,4,14,93,25,4,6,6
69,15,78,66,5,7,12,28
-30,-7,-99,-58,-4,-1,3,-7
-21,-75,-101,-30,-26,-11,-16,-20
0,-2,122,2,4,-3,-5,-11
-11,19,-17,-1,10,3,-8,-14
-4,13,17,-11,-4,3,-26,7
15,4,105,39,-2,1,22,20
23,45,-2,-1,12,5,12,11
-17,-5,12,-5,-17,-9,-26,-14
-55,-67,-72,-29,11,-9,-27,-51
21,-18,17,-63,-20,1,10,3
3,-2,-31,127,10,-7,3,13
12,23,20,43,17,6,11,20
-3,-53,-22,-15,0,1,14,-5
-4,18,-35,-29,-12,-4,0,1
-5,28,74,14,-4,0,12,9
-12,-70,-128,-27,-15,-11,10,-6
1,24,82,-44,-13,-10,-35,-3
-8,3,115,33,-8,-4,-15,-4
1,8,34,21,16,6,10,-2
-15,0,63,1,4,4,-33,-19
2,37,7,2,-2,2,63,5
-3,42,50,-2,-8,0,-3,4
5,-57,-66,-10,-4,-4,-2,-3
1,-1,-70,-8,-5,5,12,-8
9,13,17,27,10,5,-11,4
3,10,67,22,12,-5,-15,-9
21,6,-93,2,-8,-7,-21,9
7,-10,-16,-24,3,-2,11,8
-52,-27,-128,-27,-11,-2,-8,-12
-25,6,127,-13,-12,-6,10,-7
19,45,53,16,-3,8,8,3
19,-21,-40,-1,0,-3,-5,-4
4,12,93,4,11,-2,-43,11
-30,-35,-71,-9,-9,-4,3,-8
-11,56,-26,11,1,3,5,-6
31,-10,4,17,-1,-5,-9,12
-13,-30,32,-27,-4,-1,-5,0
9,34,42,-54,-12,-3,-10,-3
-25,-8,-74,73,-6,3,1,-14
-30,-25,12,-14,17,-11,-17,-28
2,34,2,-19,-3,1,0,0
-1,-19,1,11,2,5,11,7
-8,10,5,-5,-3,-3,5,-4
-1,21,-13,-8,-4,-5,-22,2
10,14,46,2,-5,-4,2,6
42,-25,-128,-63,-17,-5,10,25
-28,6,107,20,-14,-6,18,-15
-12,-24,43,36,16,6,-23,-21
0,21,127,49,22,-3,-15,-6
30,53,25,-11,-2,-4,-27,15
-22,-35,-40,-40,-14,-2,42,-8
3,4,30,-8,-8,-4,1,-5
11,-17,-112,-6,-12,-8,-2,5
3,11,29,33,-5,0,16,19
-14,8,-6,-54,-6,-3,-19,-6
-4,25,37,61,0,4,-5,-5
26,4,-52,-22,20,3,14,0
19,-53,-4,-30,-15,-16,-43,-4
-23,7,-31,34,3,5,11,-21
-6,11,-42,-4,11,-7,-48,-14
-13,0,127,-10,-8,-5,-5,-1
1,24,102,12,-18,-1,5,5
-25,-25,-128,-6,-8,-4,-1,1
27,-20,35,-32,9,3,10,12
11,42,91,10,8,8,11,4
1,20,127,13,3,5,-2,-2
-22,3,26,28,-5,-4,12,2
-7,-104,-128,-48,-25,-14,-10,-8
7,22,127,-15,-16,-5,-5,-1
-2,28,-45,-23,11,7,3,-1
-42,-26,-32,104,16,-6,-6,-15
6,-35,22,14,11,2,-17,-2
33,30,30,-2,1,0,-15,13
21,18,-24,-9,-7,2,43,12
-10,-19,-32,-26,-6,1,-2,-5
-3,11,-31,-11,-2,2,0,1
-8,-5,24,11,0,-2,0,-2
-13,-4,54,-7,-10,-8,-7,-2
9,63,-15,26,-3,-2,-1,1
-7,-65,-115,-12,-6,-2,61,-7
-6,-1,-2,-80,-4,-5,-46,-23
17,15,-5,55,10,6,-5,2
-18,-23,-1,1,-1,0,12,2
-8,1,5,-8,-10,-4,0,-3
0,-6,-24,23,8,0,7,-1
-10,1,69,24,-7,3,-4,-19
13,7,-15,30,9,1,9,7
2,-31,-128,-36,8,-7,6,24
-1,0,69,-18,-13,1,-31,2
-4,20,48,6,-11,-1,1,-6
-6,-1,22,41,13,5,8,-2
-9,28,38,-18,5,-9,-2,-7
27,-17,-45,-16,-6,-2,12,13
21,-31,-128,16,3,0,7,18
-23,9,-43,-2,-1,-6,-24,-17
-32,-2,127,-72,-29,-3,5,-22
-5,-36,80,96,12,-2,4,-9
21,7,-128,-57,8,-9,-18,-6
9,27,22,-19,-6,-2,-16,15
-15,22,33,-7,-6,-4,-13,-2
2,-7,4,26,1,4,44,5
-3,-4,41,-7,-6,6,-3,-2
-1,20,66,38,12,6,13,-1
14,24,34,12,0,-6,-8,1
-11,-52,-96,-59,-11,-8,-11,0
-9,-29,11,-20,-18,-10,-14,2
5,33,65,32,13,5,-24,-4
4,-18,36,5,1,-1,32,-4
5,32,77,5,-2,0,4,-2
-3,-16,-110,-10,-4,0,-2,-7
-17,-23,-83,-40,-12,-6,-3,-7
15,5,22,39,-11,1,-3,11
-33,-3,-77,-16,35,3,22,-2
15,16,76,-6,-5,-10,-41,3
-3,-7,94,-17,-10,1,-4,4
10,-15,-109,59,10,8,18,9
-9,7,-42,-24,8,2,23,-11
-12,-33,-20,-21,-5,-2,-43,-27
2,22,31,3,-5,-12,-54,-10
16,24,50,9,-9,-6,18,-5
0,-35,-55,-14,-12,-4,16,10
-17,-8,66,-2,4,1,10,2
3,7,-47,3,4,-2,7,7
4,21,79,-3,-6,2,-6,-1
5,13,7,-1,-3,3,1,4
6,2,109,37,17,3,-10,-9
-3,24,42,22,-9,-2,17,6
10,12,-63,-2,3,-7,2,17
20,-57,-36,-30,8,6,18,23
-35,-15,124,-21,-9,-7,-32,-24
-1,25,95,22,-8,-4,-4,-12
-11,41,74,-21,0,3,-15,-5
13,2,28,9,-13,8,63,12
3,0,18,91,24,0,0,4
11,62,20,3,14,4,2,10
-8,-39,-101,-28,-12,-11,-19,-19
-18,-56,-47,-27,-17,-13,-17,-23
-11,-1,127,-6,-8,6,-14,-22
5,4,53,6,-4,4,8,0
-7,-5,-42,-9,6,-2,-12,3
2,0,33,3,-7,-5,7,14
11,-8,-97,-4,-3,-3,-21,10
17,14,26,-21,-5,4,57,2
-6,-11,-83,18,0,-8,-12,-3
-13,-36,-30,2,-1,-3,8,-9
-4,-3,31,25,-4,2,-5,7
-18,2,44,-7,-5,-5,-5,-12
-11,7,-2,-5,-18,-6,-2,-6
11,2,13,51,32,8,12,13
29,3,-88,-9,-3,-2,10,2
-40,26,-38,-35,-4,-3,-3,-2
40,10,21,-13,-11,2,22,37
0,4,92,0,-11,-7,-20,-5
-4,21,82,52,11,-1,-22,-27
-34,-49,-128,-20,-8,-8,-20,-44
-13,-17,26,-21,-14,-5,-5,-6
-6,15,64,0,-10,-1,2,0
11,19,25,-7,13,-1,5,13
19,3,4,-13,-3,9,2,9
10,22,-6,8,5,0,-11,5
-2,-9,-16,-7,-7,-6,1,0
14,1,41,20,0,5,-31,1
-11,-34,14,-7,2,-6,53,-8
-10,-8,-61,-38,-4,-7,-30,-6
-6,1,-100,-27,-6,-3,-2,3
0,11,7,5,-7,0,0,-9
9,43,46,-13,-18,-2,-8,-1
-9,-5,94,58,16,-6,-18,-9
18,14,79,23,11,1,6,21
-16,-57,-128,-45,1,1,6,-3
-20,-34,66,31,-12,-4,-5,-17
-10,18,-11,-24,-20,-7,3,-8
6,3,32,11,9,5,0,-3
-2,-11,14,-19,0,-4,-21,-14
6,3,32,11,9,5,0,-3
-2,-11,14,-19,0,-4,-21,-14
2,36,74,40,-1,3,-27,-6
3,33,80,-1,0,6,50,3
