Channel_1,Channel_2,Channel_3,Channel_4,Channel_5,Channel_6,Channel_7,Channel_8
21,24,50,-8,-13,-4,27,46
14,8,-93,-18,-1,1,34,3
0,30,96,-12,1,1,-29,-32
-18,2,-104,-8,4,2,-30,-34
-3,-5,118,-12,2,-6,-70,-29
-17,-15,43,54,17,0,-7,-19
4,22,14,11,-2,-3,3,27
29,26,-57,-3,0,9,25,37
50,34,-20,5,0,8,106,53
6,-46,-55,-15,-19,-9,29,10
-38,-17,-12,-14,-7,-13,-39,-28
-86,0,25,0,-6,-7,-64,-72
27,19,-109,1,3,4,0,7
-5,18,127,1,7,12,23,35
6,12,4,2,7,8,34,39
16,13,-50,17,17,12,38,-6
-51,-18,49,-7,5,-4,-86,-48
-33,32,127,-11,-11,-8,-25,-26
15,-20,-47,-30,-14,-8,7,-8
27,0,-128,20,4,2,29,38
4,19,115,23,-6,-4,19,6
-70,-18,113,-29,-16,-12,-51,-48
8,-19,-26,18,11,1,-6,6
30,42,64,15,15,17,49,61
0,9,-36,1,5,8,-2,16
16,38,71,10,1,1,4,20
14,47,-78,6,8,11,82,29
-46,-65,101,-16,-7,-6,1,9
24,1,79,-3,-5,1,-17,-19
4,-32,-107,14,1,3,59,-5
14,-128,-128,12,37,24,-5,2
-26,-35,127,-1,3,-7,-66,-80
-64,-10,23,-7,-9,-17,-46,-51
4,20,23,-3,-4,-4,2,2
32,33,19,0,-1,13,32,28
36,5,-42,1,-5,2,19,40
2,26,79,-15,-7,0,28,6
28,38,-20,31,10,4,-17,-5
0,8,-34,1,12,10,21,14
-2,44,53,27,3,2,46,28
-42,-128,-128,-44,-14,-10,18,-17
22,-32,-128,-39,-19,-16,-115,-46
1,10,13,0,-8,-19,-49,-16
-22,-8,4,0,-3,18,43,2
9,-9,-43,-5,2,16,46,25
-26,24,37,2,8,11,35,12
-6,-52,-128,-7,3,0,10,-1
-64,-32,127,-31,-23,-19,-38,-49
-16,7,127,-2,-2,5,-24,-27
-9,11,-3,9,4,7,23,18
6,19,-16,23,12,6,34,17
-13,-32,-24,-11,-4,0,-39,-13
23,49,60,9,5,4,32,28
-3,-38,-29,-9,1,0,24,21
-3,15,94,25,-5,-5,-5,3
11,-16,-26,5,7,0,-24,-32
17,49,87,-16,-8,0,20,12
-31,-19,-128,-16,-2,-2,10,-2
-12,1,64,-8,-5,-7,-14,-13
-38,-22,47,3,1,-6,-4,-12
-1,9,-58,1,-1,11,21,51
11,14,105,0,3,9,33,13
21,10,39,13,5,-9,-11,-24
-22,20,7,-18,4,0,-63,-58
49,-88,-128,-30,-9,-10,-6,5
-28,-4,12,9,-4,3,8,-1
-10,18,43,11,3,-7,-21,-1
-4,14,24,6,2,-9,-24,10
26,30,31,-1,-8,8,68,55
10,-5,-69,-18,-17,22,106,21
-15,11,11,7,24,7,-13,-33
20,-21,55,16,10,-5,-60,-28
14,-43,-128,-11,-4,-15,-18,1
-54,-15,-38,-11,-9,1,11,15
31,-22,127,-22,-8,5,34,20
58,53,60,-6,1,6,20,31
-56,-50,-35,29,-4,-11,-55,-34
15,-16,-51,-6,3,-6,-27,-48
-31,8,-32,-1,-3,-7,-50,-33
3,0,-6,-5,-5,-2,10,12
41,8,-4,-4,-2,0,21,29
25,4,-12,-9,-3,1,21,25
-55,-7,-12,-20,-9,-9,-9,-37
1,81,95,9,-4,-3,5,0
18,-69,-128,28,23,15,39,33
-15,-54,-1,-12,-2,-3,25,5
5,-53,-114,-38,-10,-10,-57,-41
-41,-1,44,4,-13,-17,-36,-16
-4,-29,-43,14,-1,0,-5,1
24,20,86,0,1,4,14,12
38,47,41,-1,-10,4,41,49
41,77,10,23,16,9,41,27
-70,-128,-128,-26,6,-7,-45,-31
2,-30,-120,-13,-3,-7,-27,-41
-96,-1,67,-35,-9,-6,-31,-33
46,54,69,9,-11,-9,-31,-6
4,6,-55,85,30,-1,0,30
-12,-12,7,-8,3,6,83,-5
51,35,-39,3,8,30,55,43
-57,-93,7,-27,-13,-17,36,15
-50,-27,19,-9,-9,-2,-89,-68
-20,7,-15,-3,-7,-11,-110,-128
52,17,-47,7,0,-4,-2,28
-6,-10,28,-28,-8,2,34,26
23,20,-89,16,4,-2,17,26
10,26,22,11,4,1,14,25
12,-6,-95,-5,7,8,21,16
-36,-90,-7,-14,-20,-13,-5,-22
-41,2,-2,-10,-14,-14,-14,-22
6,30,-4,6,1,6,7,13
4,22,-31,11,5,6,22,11
22,-11,50,-10,-1,-2,16,2
16,15,-10,2,2,-8,-43,-30
26,12,52,4,4,0,-39,-8
24,-3,17,7,3,5,21,27
-55,16,-33,-13,-5,-4,23,15
-4,-26,96,16,-12,-8,-17,-24
-20,32,53,-3,-6,-6,-35,-38
2,-22,-128,-5,5,6,22,18
30,-26,6,-15,-4,3,28,20
24,30,3,16,-8,-8,-29,-9
-22,-40,0,-4,-5,-12,-32,-38
-44,-13,5,0,-1,1,5,-8
20,-11,-40,0,-2,-4,32,21
-4,16,116,-8,-11,-4,6,7
-27,12,-17,7,7,7,-3,-3
26,40,5,2,0,2,42,34
-36,-48,-51,-20,0,4,15,-5
-20,5,-32,9,2,-14,-128,-67
1,28,71,22,3,-10,-11,-52
23,-1,-43,-11,-7,10,21,19
26,18,127,3,2,3,20,33
-12,-44,4,-17,-8,-9,13,17
-57,-15,-107,-7,-13,-15,1,18
2,-9,127,1,3,7,31,15
-17,9,-51,0,3,21,15,16
23,12,-109,11,4,4,4,12
8,-53,127,-18,-13,-7,1,-12
10,-33,-128,-22,-7,-9,-23,-21
16,39,127,4,4,3,1,19
2,9,31,11,4,0,26,22
17,8,-28,-1,-7,-11,-25,-15
-45,0,-3,10,3,-2,-14,-15
-21,7,65,-27,-3,-6,-11,1
16,6,-18,6,-1,0,5,-27
23,17,56,25,12,2,-36,-22
-14,-96,-128,-46,-18,-12,-19,-33
0,8,65,-16,-16,-11,8,8
39,118,127,53,28,20,27,35
-27,-128,-128,-40,-4,0,30,12
-25,-28,41,-20,-14,-3,18,8
4,13,16,2,-1,1,-32,-10
-12,4,-51,-1,4,2,10,4
-1,16,44,-12,-26,-21,-17,-14
-2,12,-41,3,-1,-2,-63,-37
7,0,-10,-5,-3,4,2,3
9,30,-2,13,4,10,44,38
35,16,15,-3,8,1,8,1
-2,52,-52,3,2,-9,-12,-22
6,-83,92,-5,-10,-5,-30,-9
-66,-103,-128,-18,-1,18,17,6
-38,-13,-128,-16,-17,-19,-32,1
7,16,78,-3,1,1,8,-7
29,11,19,31,40,31,69,30
-5,23,11,14,14,13,14,33
-4,9,7,-8,-20,-39,-17,-60
-25,27,-30,-12,-31,-20,-95,-31
57,-71,10,-65,-58,-11,17,1
-24,-2,24,25,20,8,36,12
-76,-24,-5,37,53,20,-8,-10
-5,-6,11,5,11,-1,-34,-40
20,32,4,-2,1,-8,0,14
26,34,-3,18,14,9,21,27
8,-7,-84,-19,-15,-10,-1,9
-38,-65,-79,-19,-34,-10,-3,-4
25,-12,-57,-16,-13,-1,1,5
-13,14,-16,0,-7,-4,11,15
5,20,-5,-13,1,7,24,17
32,-26,-96,-14,-2,-2,-10,-11
-3,54,-56,27,6,-3,-28,-8
-36,-84,8,-11,10,2,-13,-18
6,37,127,5,-6,-8,1,-7
1,-28,-128,3,-5,-4,-5,5
7,-6,-14,-7,0,-3,9,13
6,11,-10,-1,4,4,17,23
-1,20,50,-6,3,3,28,1
10,29,7,21,5,2,-31,-8
-36,-54,26,-16,-10,-11,-15,-30
-28,-12,63,-14,-10,-10,-42,-22
-9,6,30,5,5,0,-32,-14
6,9,-23,-1,0,-4,-31,11
11,20,-11,1,4,2,33,16
11,35,63,11,6,4,35,11
-10,-51,-89,-16,-7,-5,-4,-10
13,-5,41,-10,-5,3,1,4
-5,11,-26,6,0,0,-18,4
4,10,11,3,1,5,22,41
27,17,37,3,-2,5,79,32
-21,4,12,4,-5,-13,-59,-59
-19,-53,-62,3,-1,-8,-82,-66
-13,0,-16,-13,-2,-11,-20,-18
30,34,24,-25,0,5,16,12
27,-15,-72,43,10,8,35,21
-40,1,127,5,-7,-6,-25,-11
3,-29,85,-2,3,-3,-19,-1
1,-64,-128,-31,-12,14,4,10
4,-2,-94,7,-10,-8,-3,-8
10,14,101,7,5,0,13,3
-17,-16,-31,-8,-1,-1,9,-4
-27,9,12,-13,-11,-3,-34,-9
21,3,-25,1,11,5,-30,5
1,10,-1,6,3,1,84,6
30,36,16,-6,-3,0,9,7
4,-13,-61,-14,-3,-4,7,4
12,-3,-15,33,15,11,21,28
-52,-61,17,-25,-17,-9,4,-4
9,59,70,2,1,-8,-41,-24
15,-57,-77,-30,-14,-12,-1,-26
12,10,41,-1,-17,2,-39,-24
-27,7,12,8,-2,-3,-5,1
13,21,10,-9,0,3,10,23
48,20,-52,-26,16,17,57,61
-33,-2,81,41,8,-1,-8,-20
-57,-57,127,8,-10,-37,-103,-80
-40,-11,-11,-6,-8,4,-23,-46
14,2,-89,-10,-5,-9,-5,8
24,2,-22,-13,0,8,21,12
26,11,-19,-6,1,3,58,24
2,19,20,-3,-9,-2,7,28
4,31,55,0,0,9,58,53
21,-21,-128,-27,-8,-4,23,7
30,-45,-21,23,21,1,-128,-89
-46,-35,47,-5,-7,-15,-70,-62
-20,1,-3,-8,-4,-12,-4,1
1,6,15,1,2,-1,15,14
15,21,57,-5,-2,3,22,21
21,13,-86,-2,-10,-1,23,23
18,4,-128,-30,-16,-2,13,16
-13,42,30,45,18,7,-12,-13
-41,-38,127,3,10,9,-4,-20
-35,-43,-113,-18,1,-2,1,-4
-6,24,95,-8,-8,-7,-3,-5
12,12,33,1,-7,-3,-22,-21
16,1,-75,27,10,1,2,7
49,34,14,10,0,5,18,23
10,8,-6,-2,7,10,23,11
-15,27,101,-4,2,5,-5,38
0,-30,-57,-18,-9,-12,-1,-31
-44,31,34,4,-2,-12,-42,-46
1,-61,-128,-11,-6,0,-2,-16
-12,-5,37,-9,-6,-6,-8,9
6,23,7,-33,-18,-3,-11,-2
-49,27,127,49,3,3,-6,-48
3,-36,-128,-8,8,0,21,19
3,-8,-43,-4,6,7,18,21
22,26,40,2,0,7,-12,8
4,-2,107,25,4,4,31,28
-12,-2,47,-18,-11,-14,6,-4
-12,4,-8,-3,-4,-5,17,-23
14,32,8,4,7,5,1,18
42,-18,-79,5,2,7,33,16
-46,-34,-61,-9,-8,-13,-48,-53
-8,3,60,-10,-5,-2,-64,-27
3,20,9,-14,1,-5,32,35
17,18,-7,47,12,16,45,29
16,-17,-15,5,-6,-11,-38,-8
-8,21,33,2,2,-6,-36,-45
-4,-53,-128,-14,0,2,13,26
-31,6,127,13,-4,-2,40,43
-34,-59,-128,-16,-7,-9,48,-20
-18,10,-2,-24,-19,-22,-125,-94
-25,2,19,11,11,1,-43,-46
-6,15,41,7,17,8,17,15
17,9,119,2,4,5,33,29
38,37,-8,-10,0,3,27,28
5,9,13,-14,-8,-4,9,13
-8,3,-37,-27,-6,-1,24,21
-70,-80,-128,46,3,3,3,-13
-7,2,127,7,-8,-9,-36,-51
-4,9,-55,-4,-4,-5,-22,-8
15,-2,-31,-9,-5,2,5,6
37,18,36,-10,-2,1,8,17
19,24,20,-3,2,7,30,42
-3,-38,-103,-5,6,4,12,5
-78,-21,-16,-14,-18,-12,-2,-40
4,22,33,8,9,-1,-43,-31
-27,-29,-37,9,0,0,12,0
7,20,96,-8,4,-3,32,6
28,21,82,1,-2,-2,-68,-10
19,22,-128,-2,4,1,0,33
2,-46,127,-11,0,0,6,27
-61,9,-73,2,-6,-5,-26,-84
-4,-91,-105,-20,-9,-10,4,-24
2,10,-22,-9,-11,-4,-4,6
48,31,127,2,0,2,13,26
33,-18,-128,-3,1,6,10,21
-48,-14,3,0,1,4,-29,-17
13,-6,-5,5,2,-2,0,13
3,8,-12,-21,-6,2,67,21
-33,10,34,-12,-15,-11,-28,-16
-18,7,-17,50,12,6,-13,-17
18,39,122,10,10,9,28,36
-18,-83,-128,-15,8,3,44,4
2,10,-78,-3,-6,-9,-59,-46
-29,-78,-42,-35,-8,-13,-89,-63
9,33,32,-8,-8,-11,-6,9
-14,-25,38,-10,-6,1,13,7
19,22,56,1,-12,2,3,17
24,-5,-20,20,9,9,25,25
41,50,44,12,24,23,67,76
-11,-44,-8,6,1,-5,13,-1
1,-27,-128,-4,1,-10,-99,-60
-26,-48,-76,-35,-20,-14,-52,-92
-10,23,71,-3,-17,-10,-8,-5
16,18,30,4,1,9,28,23
12,9,2,8,10,9,36,32
-5,12,92,12,-1,-5,24,12
12,-12,-118,-6,4,5,-27,-12
2,-14,-55,-13,-3,0,-5,16
-46,-3,-18,3,-4,-2,10,16
34,36,98,-45,-21,-16,-24,-37
6,-68,-74,-16,-7,-5,-14,-25
2,9,75,16,6,-2,8,11
1,22,-67,13,2,6,33,34
15,15,32,1,5,4,6,7
-36,-8,-43,0,8,-1,-26,-20
-12,-9,-57,-16,-9,-7,-19,-34
-20,22,127,7,-12,-14,-68,-46
-18,-11,33,-30,-12,-2,0,2
9,-11,-93,-11,-2,2,17,17
5,-22,-24,3,-5,0,16,12
19,22,-15,-5,5,5,36,17
43,79,127,21,7,0,-25,3
-24,-105,-105,-27,2,1,-15,-10
-78,-22,-30,-6,-8,-4,4,-10
-16,-9,38,-5,-13,-15,1,5
19,13,42,9,0,4,8,11
50,19,-4,11,14,17,41,61
1,-9,-17,-7,-5,-1,31,-15
-4,19,-31,6,3,-5,-91,-59
-22,-40,-52,-7,1,1,-47,-55
14,-13,-3,-1,0,-3,-1,6
20,15,-1,-2,-5,-5,7,14
9,5,-22,-1,-9,-5,23,28
-26,27,127,0,1,5,11,2
1,-38,-82,8,2,1,8,-7
9,-26,-128,-21,-7,-6,-9,-3
17,8,127,-18,-17,-11,13,5
37,20,-5,1,2,8,33,59
-5,10,-69,10,5,0,-21,-2
-33,6,115,12,-4,-16,-80,-81
-73,-57,-103,-27,-10,-12,-66,-57
-7,-8,74,4,1,2,53,-12
-8,11,33,0,6,3,24,19
19,29,40,-3,-2,11,30,29
28,-8,-109,-3,3,16,37,51
32,23,33,-1,2,9,58,34
33,9,127,6,1,-3,29,42
-43,-91,-128,-17,-22,-18,-93,-54
-34,12,71,10,-13,-21,-94,-76
-27,13,26,5,3,-2,-32,-61
8,26,15,-5,3,4,29,23
27,10,-10,-4,7,9,36,30
20,44,1,-5,0,6,15,22
13,-6,-83,9,5,9,23,33
34,23,127,-18,-14,-14,5,3
-58,-47,-67,-16,-2,-5,5,-8
-8,-5,0,-6,-8,-9,13,6
-2,12,-14,-9,-8,0,20,1
17,-12,-23,28,15,9,-9,10
19,17,33,7,4,2,-19,3
25,11,47,15,8,4,17,10
-50,13,-6,-10,-5,-9,-64,-32
-13,-36,-71,8,-13,-26,-11,-36
-20,8,127,-3,-4,5,-6,-27
11,-112,-128,-63,-17,0,10,10
34,29,127,5,-6,8,17,28
42,-8,-108,4,8,21,46,21
-32,17,97,-3,1,-3,2,-22
71,28,-5,5,5,-1,3,17
4,41,-58,13,5,-2,7,2
-80,-27,127,-9,-15,-13,-50,-30
-14,-41,-128,-40,-16,-7,-10,-15
17,34,18,15,9,3,11,8
10,-14,-63,6,-4,0,11,1
22,11,64,-25,3,2,5,24
10,-9,31,26,11,14,27,25
16,27,-57,2,21,9,23,12
-8,-39,-71,-5,-12,-13,-27,-14
-31,-12,0,-9,-10,-13,-69,-69
5,18,31,0,-9,-2,-20,-9
29,25,29,6,2,7,44,48
42,9,-57,-8,6,3,72,23
-29,-55,-12,-5,-7,-7,-33,-56
-21,15,39,-9,-9,-11,-70,-39
-13,-5,-70,1,1,-2,-13,-20
15,15,54,-2,3,8,44,48
47,24,12,8,2,18,102,111
20,17,11,1,-1,-2,14,-25
-10,16,32,-15,-9,-26,-128,-96
-19,-3,-10,11,-2,-5,-36,-37
26,-9,-95,-7,-8,-9,23,16
-29,-8,-11,-15,-6,2,34,30
7,-4,11,14,7,8,25,35
24,18,21,16,0,2,10,5
18,-15,-128,-2,15,7,15,23
-17,-59,43,-5,-4,-5,11,12
5,-24,49,-22,-20,-8,8,2
-37,-3,-40,-7,-5,-3,11,-14
-45,-34,-72,-23,-12,-9,-62,-23
-27,3,28,16,-3,-6,-15,-11
64,23,64,-5,-2,4,30,29
37,43,-10,19,16,6,16,2
-5,-17,-128,-4,13,7,-49,-13
-34,-43,55,-22,-16,-21,-60,-55
-36,-20,118,-7,-23,-16,-8,-14
8,5,11,-12,-7,3,19,17
42,16,17,-6,-1,7,47,36
-35,34,-15,22,10,1,31,40
26,-45,-17,3,-1,1,-6,1
-9,1,62,-13,-6,-6,-24,-50
0,10,-53,-11,-4,-8,-53,-35
6,27,34,14,1,-6,-7,11
-23,-16,-128,-12,-6,5,25,20
-4,2,9,-7,12,1,31,31
30,-7,14,18,-1,1,6,-1
-52,7,32,1,1,0,-18,-21
-17,32,119,-1,-10,-6,-9,-3
15,-49,7,-9,-12,-8,-1,3
0,22,68,-6,-5,-9,15,-3
21,11,-93,-2,2,2,1,7
28,9,-10,0,-14,-15,-34,-1
1,26,1,9,3,5,4,3
-6,-45,127,-2,10,1,-10,-14
3,10,-4,5,6,5,-3,4
-10,-1,65,-2,0,7,6,5
-9,2,54,1,-7,-6,17,0
-5,6,53,8,2,5,42,21
0,19,-45,6,0,-7,6,21
-15,1,-44,-20,-7,-8,1,1
-13,-27,-58,-17,-5,-12,-36,-40
-52,-25,39,-39,-5,-6,-78,-63
7,30,44,45,5,8,-13,14
16,24,4,-6,-7,4,37,46
16,14,24,68,27,3,39,25
-20,-33,1,-21,-3,0,19,-11
3,63,-51,-18,3,9,5,4
-20,-81,-128,-27,-11,-9,0,-16
-11,-45,127,-8,-8,-13,-52,-43
27,-2,-35,-17,-5,7,37,52
19,34,9,2,2,8,31,6
-22,-31,-112,6,-8,-19,-76,-55
5,11,124,-4,-5,-11,-42,-25
6,75,68,22,15,10,26,28
8,-54,-96,-20,-6,7,42,31
47,-2,-29,-34,-21,-9,12,9
-29,36,-17,-8,7,-1,-17,7
-52,-9,127,47,10,1,-13,-43
37,-52,-82,-19,-13,-7,9,4
-19,19,21,-10,-6,2,9,8
-10,7,18,7,3,5,17,11
22,11,2,-2,-2,-5,42,50
0,14,-1,5,5,2,13,-18
-21,-8,-4,6,-1,-5,-67,-85
-5,-20,3,-1,5,-10,-52,-11
33,16,-7,-7,-2,3,92,127
23,8,-21,-4,-11,6,120,43
-19,30,116,23,3,-7,-119,-107
-2,24,-82,2,-2,-14,-77,-65
-56,-110,127,-9,-10,-14,10,1
-6,6,88,-14,-4,-5,-4,-29
36,35,1,2,-4,5,41,60
16,17,17,-11,3,10,35,15
2,-2,-27,14,-3,9,8,11
-26,14,67,-7,-5,-7,-4,1
16,52,-128,49,7,-1,-3,2
-33,-97,67,-16,9,3,0,-12
13,-7,31,-29,-20,-11,-14,-2
20,14,-19,-9,-10,-8,-3,16
-12,33,31,14,17,18,14,14
20,21,68,19,18,9,23,6
36,-33,-75,-5,-3,-3,14,17
-3,-2,63,-12,-11,-13,-72,-27
-30,17,-2,5,-2,-4,-46,-27
-23,-56,14,-17,-10,14,-19,-66
-8,3,-28,-5,-14,-12,-4,-15
9,6,-82,4,11,4,13,20
9,8,17,7,2,3,16,19
8,20,-37,14,3,3,36,42
12,1,56,-14,-2,-2,31,25
29,19,14,16,-3,-4,-39,-19
-71,-45,-69,-11,-4,-4,-50,-47
-14,-39,-62,-5,-10,-9,-27,-4
0,-25,62,-17,-9,-11,67,1
25,35,63,-3,-2,0,12,23
63,17,-37,-16,-6,6,38,52
27,72,116,17,4,8,58,49
-24,-13,-118,18,20,8,-4,-23
-82,-91,-106,-5,-5,-16,-116,-106
-14,-24,59,-13,-14,-16,-69,-49
35,32,49,-6,0,-1,-10,9
36,31,14,-6,0,2,47,26
6,49,-16,-5,4,8,42,41
66,41,127,36,15,15,71,98
-14,-92,-123,-3,-7,-2,32,2
-36,-39,100,-62,-24,-16,-65,-79
-60,31,51,24,11,-11,-68,-58
3,9,-15,19,2,-2,2,-29
27,25,85,5,2,-1,-36,1
52,35,-49,1,-3,4,33,51
-17,-115,-128,-15,-10,-8,39,36
-22,-42,-128,-21,-9,5,-15,-36
12,28,42,-3,4,-5,-17,-8
51,64,77,19,4,-2,50,30
17,23,-128,-12,2,-13,11,12
8,-89,-128,3,4,3,-27,11
-45,-18,76,-1,-8,7,-12,-12
-1,10,27,-9,1,4,-20,1
13,18,-10,18,0,3,40,11
15,19,-3,-6,-3,0,37,15
17,-11,-10,-2,3,-6,-11,-11
15,19,68,4,2,8,15,37
-15,20,89,9,1,3,51,39
-16,-20,-128,-18,-8,-10,-21,-54
-46,-59,123,-18,-10,-26,-128,-98
-12,16,81,-1,-4,-13,-51,-24
12,16,51,0,-2,8,33,53
54,28,-61,-16,-5,9,46,88
65,30,-22,56,19,6,40,15
-56,-77,68,-17,-7,-9,5,-84
-36,-9,-37,-17,-9,-5,-128,-79
-15,-34,-98,-21,-6,-2,3,11
10,8,127,-8,-7,-9,28,47
19,8,-5,19,2,-3,24,26
16,9,-14,-8,4,0,-43,-38
27,30,76,-6,2,7,8,15
14,40,45,-2,0,3,22,29
14,-19,-63,-2,6,11,31,19
-56,-40,-45,5,4,-7,3,-14
6,22,-11,5,-3,-5,2,2
12,-28,43,0,2,-2,3,4
-59,-72,-128,-61,-28,-17,-21,-2
14,15,69,6,-4,-6,9,9
-44,-31,102,-5,-8,-13,-57,-62
10,19,5,63,4,-2,-21,-38
6,32,-2,1,3,2,21,2
13,18,-17,-12,1,-1,-13,7
61,10,-25,20,2,1,36,20
10,7,6,-2,-8,-7,-47,-1
5,47,119,7,2,13,-4,21
-2,-103,-128,-37,5,11,64,15
-20,-33,127,-13,-9,-14,-30,-15
-54,-45,30,-9,-8,-6,-7,-11
-16,-15,-13,-9,-6,0,24,4
45,37,8,6,8,6,25,34
-9,37,12,11,6,7,40,2
34,61,-3,22,-2,-2,-9,5
20,-38,37,-39,-15,-14,-41,17
-26,-34,19,-9,-17,-22,-7,-39
-13,9,-90,9,16,11,15,-21
8,-1,3,-11,-4,-7,-2,10
43,22,-12,-15,5,13,21,52
34,22,-23,7,8,2,24,31
-65,-17,14,12,0,-13,-67,-57
-48,-9,-68,18,10,1,-32,-33
-5,-36,-42,-26,-7,0,12,10
5,36,127,-12,-34,-11,22,18
21,-36,-128,-7,-1,4,50,65
1,24,36,25,13,-1,34,-20
-22,25,55,-6,11,-1,-46,-57
4,6,9,-8,-1,-4,-115,-55
2,-15,-6,-1,-4,-6,-11,11
-12,-19,28,-29,-25,-9,19,23
5,16,-30,5,10,2,-3,2
7,4,87,-2,3,-1,16,16
16,-23,-128,3,0,1,14,12
-31,-23,37,1,3,-1,13,3
-7,8,26,-6,-5,1,21,4
16,15,-17,-15,-7,-7,-20,-12
-4,3,-1,5,-1,-3,-15,-3
5,47,99,5,4,1,2,17
-9,-124,-128,3,-9,-1,-4,0
-25,-5,14,-7,-14,-18,-8,-11
-7,6,38,-12,-4,1,-16,-38
13,11,-4,0,6,2,0,-2
23,16,38,7,6,3,20,25
49,45,14,-5,3,8,28,52
30,23,-2,29,13,-2,-22,27
-95,-34,-15,3,-5,-21,-3,-55
-128,-51,1,-29,-15,-9,-45,-107
-36,1,-22,-5,3,7,-6,0
26,-19,-45,-14,-12,-7,21,30
26,-12,-22,-7,0,-2,7,19
22,35,-15,20,6,-1,-18,-1
4,3,0,26,16,1,-13,-18
-11,-16,32,-19,-11,-4,-14,-29
28,13,34,7,9,6,7,8
53,40,36,4,6,6,49,60
12,20,-12,-21,-3,2,29,30
-59,0,-41,12,-4,-13,-51,-55
-34,-60,100,12,-1,-4,-12,-59
-16,-12,-69,-17,-9,-6,-106,-49
25,6,-32,10,3,-3,0,14
17,15,1,11,1,-4,23,24
22,16,17,5,4,2,32,33
14,30,54,13,0,3,27,25
-10,-9,-18,-10,1,4,36,33
-35,-4,57,-16,-4,-2,10,-3
-26,5,-28,-6,-6,-11,-87,-93
7,10,127,19,3,0,4,0
-36,-23,31,-7,-8,-1,18,-6
12,42,36,-8,5,1,-36,-6
7,-23,-32,-12,-7,-1,-10,1
-37,-17,-128,-3,5,0,30,0
19,8,23,3,0,-10,-21,-14
22,10,32,-2,-6,-5,25,21
18,18,2,2,3,8,-32,3
-10,34,64,1,1,5,-10,12
10,-7,-128,10,-1,5,89,16
-22,-98,-16,-45,-6,-8,-2,2
-35,-35,80,-12,-4,-10,-10,-19
9,23,-50,8,-3,17,12,0
26,16,-19,-20,-8,-1,-42,38
8,-8,-58,-6,4,-1,-18,-20
-31,-4,-1,6,-6,-15,-18,-69
-37,-16,13,-1,-4,1,-26,-26
-5,13,25,12,13,3,10,18
20,63,-50,1,8,3,17,30
34,-67,-2,-6,1,0,27,46
1,-21,-12,-29,-21,-2,40,22
-4,1,42,-13,-13,-6,3,-5
-27,-10,-9,-1,-12,-12,-37,-37
17,49,77,4,-1,0,-25,-14
21,-2,-87,-14,12,6,-13,-5
-50,-20,-128,35,14,1,4,-16
-20,-44,37,-22,-4,-6,-27,-17
2,11,45,14,-8,-7,1,-1
11,16,11,-5,7,0,17,29
13,-21,-44,-23,-5,1,34,19
23,42,84,8,-2,-7,-34,-8
-5,-26,-98,8,-2,-5,24,13
11,50,127,-24,-9,-1,50,39
-37,-128,-128,-3,-6,0,29,54
-9,16,127,-3,6,1,-36,-60
-9,31,39,17,-1,-9,-95,-111
-4,15,6,8,4,-5,-45,-20
0,6,-9,-7,-8,-6,9,23
36,20,28,-6,3,9,36,45
63,17,-101,26,16,12,44,60
-4,-19,-41,-19,-17,-7,13,8
-49,-45,38,-9,-6,-4,-17,-41
-82,-35,3,-11,-10,-19,-34,-37
9,43,103,39,3,-1,5,13
24,-41,-42,-26,-3,0,20,13
35,22,80,-5,4,-1,19,31
42,23,16,-14,-11,-7,14,16
-27,40,33,21,-2,-7,-19,-24
-68,-65,-99,-28,-6,-4,-65,-86
7,-82,-47,-8,3,-4,-8,4
29,18,9,16,9,12,46,45
26,33,-19,6,1,10,49,28
-24,16,-16,-23,-6,-11,-28,-27
-35,-40,-32,-10,-21,-16,-71,-41
-13,7,44,27,4,-4,-2,-4
4,-5,-71,10,12,2,7,0
11,3,-106,-3,3,9,22,14
6,0,35,-24,-4,0,-1,18
25,28,70,14,-10,3,54,40
-1,37,107,32,3,2,48,-6
-29,-48,8,-18,3,-6,-88,-52
-36,-44,-33,-20,-5,-9,-26,-24
-2,-1,30,3,-8,-5,-4,-4
16,13,13,-18,-14,-4,5,13
30,4,-17,18,1,2,8,24
45,39,37,16,12,4,23,35
-3,-4,-37,-4,0,-1,8,8
-21,-37,-9,-10,-2,-3,5,-2
-60,-20,14,-9,-4,2,-17,-32
5,13,41,-1,-7,-11,-52,-53
13,6,12,9,-6,-2,-1,-10
34,50,-25,19,7,5,14,38
-5,-44,68,12,7,-2,26,29
-10,-28,-69,-11,-4,-5,-16,-12
8,11,17,0,-9,-11,-14,-5
-15,-8,-8,-2,-1,0,-29,-48
12,25,59,-13,-2,1,5,4
35,23,69,15,0,6,27,25
7,-11,-26,-19,-2,1,37,40
-1,13,55,15,10,-2,21,18
2,-52,-82,2,-4,-7,-57,-31
-6,-3,94,-16,-6,-3,-36,-49
9,19,90,-17,-2,-4,-2,-9
8,18,15,14,-4,-6,10,22
-7,4,-27,2,-4,-1,-3,1
24,17,-4,14,8,3,-8,21
10,0,8,-10,2,3,23,26
-8,24,-2,10,-4,-5,-19,-12
-60,-65,-13,-12,-11,-5,-30,-67
5,11,-109,8,1,0,2,6
51,17,14,-8,11,6,42,40
32,-1,26,-12,1,4,37,23
-128,8,-11,19,6,0,-49,-36
-14,-92,-34,-21,-7,-8,-27,-35
-33,-42,6,12,-5,-18,-23,-13
-23,1,17,-4,-9,-1,-20,-25
24,24,20,1,8,13,67,53
78,30,8,-6,8,11,52,50
63,21,20,0,-3,-1,-32,-29
-51,26,-24,10,6,-11,-62,-59
-20,-24,76,-2,-4,-11,-35,-21
-11,-15,-27,-25,-12,-11,-6,7
7,15,7,0,-8,3,74,25
10,34,46,3,1,3,14,9
10,-9,-56,5,6,20,21,14
-20,22,127,-18,-14,-15,-25,-20
-14,-54,-48,-18,-13,-9,-47,-23
8,5,-3,42,20,3,7,10
6,2,-5,-9,-1,0,13,13
33,20,-4,0,-4,-1,11,24
7,-5,-10,3,0,3,39,34
-55,-1,55,2,0,-2,8,-12
-13,-48,-82,-14,1,-7,-48,-33
49,8,-31,0,-1,-1,-38,-22
-46,-26,-36,1,9,-8,-11,-1
-15,12,43,-18,-15,-11,11,-36
11,18,-3,-4,-7,-3,-28,-41
9,28,127,20,0,1,6,2
16,10,22,0,-1,3,20,25
38,34,34,4,1,3,47,44
30,-70,-52,-10,-4,3,28,40
8,13,-13,-13,3,-2,-9,1
-71,-31,69,0,-2,-20,-107,-83
-54,-23,-50,-10,-8,-9,-9,-46
-1,18,-1,-7,-5,2,-11,5
17,16,73,13,-2,-6,5,6
6,9,-24,-8,0,6,15,5
-24,12,-7,-8,12,5,19,10
-1,16,26,-5,-5,1,45,53
32,6,-17,1,4,-2,20,7
25,-14,28,17,-2,-12,-63,-49
-33,-24,-47,-5,-3,-1,-36,-39
-18,-28,-47,-10,-6,-4,-8,-9
6,10,-35,-1,-7,-5,8,14
7,18,-29,-6,-15,-4,23,16
15,15,127,-6,6,4,23,45
0,-29,-128,-10,19,14,40,7
20,11,42,1,-10,-11,-56,-40
-52,-19,27,0,-6,-16,-46,-48
-18,0,44,-4,-10,-14,-37,-17
7,-4,-21,3,-3,6,-16,-8
15,14,-27,-6,1,5,14,15
20,24,36,-6,-1,2,19,22
1,-23,-40,-4,-2,4,32,39
46,-7,-23,4,-4,-2,18,12
-14,-71,4,-29,-7,-7,-54,-41
-27,-18,19,6,-5,-5,19,-20
-22,12,21,10,9,-4,-1,-10
15,15,-15,1,-4,3,16,25
26,9,6,-1,1,-3,19,10
6,8,5,-13,-1,1,4,27
0,4,-11,9,4,9,16,16
4,0,12,16,-1,-11,-41,-23
-62,7,0,4,-4,-5,-65,-69
9,-13,-12,1,9,-2,-33,-46
4,19,43,10,3,2,14,6
-17,-33,42,-30,-10,0,24,20
12,10,4,-1,-1,-2,25,19
-3,-12,-81,-12,-6,0,17,7
8,30,23,-19,-6,-3,-11,9
-7,-41,-103,0,0,0,3,1
6,-13,-2,5,-1,0,-7,6
-9,11,61,1,6,9,-2,-4
31,38,65,9,-1,-10,-4,-11
-9,-31,3,-3,5,-3,7,2
-22,0,-46,-11,-5,-7,0,4
17,3,3,16,0,3,22,10
65,37,46,2,-2,4,44,27
14,9,45,0,2,14,17,9
-47,-20,18,-20,-6,-15,-84,-85
-68,-33,-24,0,-9,-13,-105,-69
9,2,32,2,1,-11,-13,13
19,-6,-125,-2,6,-5,13,28
13,-4,4,-6,0,8,52,26
2,17,19,-13,-13,7,8,-6
10,9,77,2,-6,-8,15,-3
20,8,18,-8,5,5,38,54
13,3,0,24,8,5,42,31
15,28,52,7,7,-3,-35,-14
-76,-32,-50,-22,2,-5,-71,-118
10,-56,-95,-11,-10,-3,-11,-13
13,7,-33,-7,-6,-18,6,12
7,1,40,-8,-7,-5,4,14
7,3,12,-3,-6,2,31,17
41,21,33,3,-1,0,6,16
-32,-9,-45,-10,0,3,8,7
-4,-7,-42,-1,-1,1,6,1
-31,13,-46,-9,-9,0,40,32
39,-11,49,-13,-9,-2,15,-6
-42,-22,-63,6,6,-11,-128,-80
-18,3,118,10,6,2,-32,-18
-4,-27,-121,-18,1,3,-12,0
16,47,27,21,10,4,25,24
14,-40,-128,-20,-1,4,58,30
22,-22,55,-2,-16,-12,26,3
17,6,-69,-4,-3,-3,-42,-7
-32,-6,118,25,0,-9,-25,-28
-9,-8,-56,2,-2,-2,-19,-20
6,20,41,1,-1,-6,18,3
12,4,68,-15,-3,1,21,16
5,-3,-89,-13,-1,15,24,17
-5,26,36,8,7,7,31,38
46,-29,-9,-1,-3,2,26,16
14,3,8,-4,-11,-11,-16,-25
-34,-31,-6,-3,-8,-16,-124,-64
-51,7,47,-6,-7,-6,-5,-30
-18,10,30,-10,-5,-1,12,17
4,-21,47,-12,5,1,51,27
6,-9,-92,11,-4,-5,22,29
16,12,69,2,-1,9,37,11
26,10,0,4,-4,-2,9,-5
-30,33,15,6,3,-2,-71,-74
1,-74,-53,-30,5,-3,-26,-7
-45,-17,-27,-1,-6,-8,-4,-3
20,12,16,8,-3,1,13,21
24,35,62,29,4,-1,11,18
1,-7,-128,1,6,5,14,16
-4,-12,30,-31,-4,-2,22,12
-27,-49,36,-21,-15,-12,-2,-15
2,7,38,5,-9,-7,-71,-23
5,9,-28,8,3,7,5,0
23,8,11,-10,-9,-7,27,9
12,2,4,4,-3,0,-16,3
-31,1,2,-5,2,-3,19,-15
-8,10,0,1,0,-10,-40,-9
29,50,38,11,4,24,3,0
21,-24,-32,-14,-7,1,47,32
-43,-25,6,-15,-9,-11,-25,-10
-45,-45,-47,-2,-7,-13,-72,-97
0,69,127,3,1,-9,-52,-24
14,-41,-95,34,14,5,1,21
18,0,-52,-13,-10,5,14,16
-8,-20,62,-13,-18,-8,50,7
5,0,27,-2,1,1,18,25
31,22,24,-4,3,4,24,32
-5,9,0,4,-4,-6,-23,-16
-55,-11,-14,-1,7,0,-26,-61
28,25,41,8,10,7,-1,27
38,12,-128,-10,1,7,28,21
18,-22,17,-14,-10,-12,14,-1
-34,8,48,-19,-11,-14,-67,-43
-29,-48,8,20,4,-4,-19,-23
5,-13,-62,19,6,-1,5,4
14,18,4,-5,-2,2,13,15
13,19,37,-10,-6,-1,15,16
11,12,0,20,7,0,22,19
-8,11,8,-1,4,4,24,16
1,32,49,-1,4,2,-32,-4
-20,-68,-128,-28,-27,-15,-27,-34
-8,11,127,-17,-3,-20,-15,-21
-57,-42,61,20,15,21,2,-36
-33,6,17,14,7,3,9,9
26,5,-128,-4,7,3,13,18
-1,-12,-43,-16,-5,1,10,3
17,47,9,2,3,11,31,59
52,24,25,11,-8,-4,50,34
-21,17,38,-7,-6,-13,-27,-48
19,-76,7,-34,-19,-31,-109,-94
-58,-8,25,5,-11,-12,-20,-20
9,9,2,0,4,16,30,23
14,22,16,10,13,12,32,23
16,-5,-21,-2,8,1,16,15
6,8,-6,1,0,6,10,12
-10,19,29,2,-2,2,3,4
29,14,17,-1,-2,4,2,11
26,-20,-128,-19,-9,-6,24,30
-40,23,77,-2,-1,-7,-1,-7
-35,-60,-98,-37,-20,-14,-37,-56
-51,-4,88,6,-8,-5,-29,-38
-3,13,13,19,6,3,-7,-6
11,18,6,10,12,8,15,13
27,6,-11,0,11,14,61,67
0,4,-11,4,1,3,42,8
20,31,37,-6,-10,-14,-62,-36
-22,-30,-70,0,1,-14,-71,-43
-44,-70,-68,-19,-5,-9,-22,-35
-17,4,22,-12,-9,-4,12,-3
3,-5,-3,10,-2,7,25,19
6,5,-2,13,-3,-4,18,18
8,6,3,-8,-9,-3,12,16
6,3,4,7,4,1,13,17
23,32,69,3,9,11,24,19
5,37,-128,6,6,-1,1,0
-28,-94,-12,-20,0,-9,-36,-28
-6,-59,-43,-29,-16,-9,-10,-8
-22,10,18,16,-6,1,7,5
3,20,10,4,-2,-1,15,-9
9,18,23,-6,-13,-6,-34,-14
1,14,8,-11,-15,-11,-7,9
7,11,24,4,3,1,29,21
-18,-18,-45,1,24,17,12,-15
56,48,81,8,4,-1,-31,-17
-19,-31,-34,-19,-8,-9,-42,-20
-26,7,-38,-14,-9,-11,-11,-14
-3,-29,109,-8,-8,-7,4,5
3,14,104,4,-7,0,12,9
-24,-13,-72,-3,-3,-2,15,13
8,10,-60,-14,-4,1,15,16
48,-8,-15,-17,-6,2,2,6
-47,-8,1,-5,-7,2,-8,-13
-47,-10,16,14,11,-6,-12,-14
18,-16,-23,-6,4,0,1,6
-7,10,59,17,2,4,24,3
34,-2,-128,-14,-1,1,35,26
-43,3,127,23,0,-3,-22,-10
51,-6,33,1,-1,-2,-24,-9
-19,8,9,-12,-2,-8,-46,-45
-7,3,-19,13,-7,-7,-39,-36
6,25,31,-11,-5,-1,7,15
14,-21,-124,8,0,3,25,26
-17,-9,49,-6,3,1,37,-1
-40,-4,30,-5,-5,-4,-10,-9
-5,-7,1,-2,-16,-8,-22,-3
11,21,-3,-9,-3,-1,1,6
2,-10,6,7,-1,-1,6,4
8,-13,11,4,14,11,26,24
-45,6,0,-6,6,8,44,24
37,28,26,-5,-8,-2,-26,-14
17,8,40,-9,-20,-18,-61,-51
-20,23,14,-2,-17,-10,-25,-11
32,-97,-22,-21,11,10,18,-1
-3,12,67,31,9,0,5,0
1,17,36,5,4,1,-11,0
26,17,25,3,-6,-5,13,15
24,24,23,-5,-8,-5,9,8
-10,12,-6,2,-1,-1,4,8
-26,-5,17,-11,-7,0,1,-2
29,2,-10,-8,-6,-7,-4,1
-14,18,22,6,-3,1,1,2
-6,-19,-70,1,-1,-2,-5,0
6,11,37,-5,0,7,33,31
18,-3,25,-4,-1,1,46,27
-4,12,-25,20,13,-2,-31,-35
-39,-55,-48,-9,2,-10,-64,-62
-11,8,73,-8,-7,-15,-50,-62
8,24,36,3,-7,-4,-9,9
9,-15,-84,-29,-15,-3,29,28
-7,7,50,-18,-7,3,30,14
16,24,75,35,20,16,31,32
17,17,-69,3,6,-2,1,10
-5,-5,40,3,-6,-3,-9,-9
2,-16,27,-8,-17,-10,-30,-15
19,-7,-29,-3,-6,-2,-1,-2
-17,-5,-3,-10,-5,3,16,14
-13,0,3,-5,0,7,37,18
2,30,27,-7,-6,-8,-5,-10
6,-16,-56,23,7,-3,-85,-47
4,38,54,15,10,1,-1,1
23,-45,-21,-27,-10,0,23,7
-19,42,127,3,-6,-5,13,9
-11,-70,-128,-8,1,-9,-37,-14
-41,3,127,-17,-19,-3,-9,-16
7,6,71,3,-5,-6,15,14
-8,9,49,3,-3,1,11,8
-11,8,41,-4,-7,-1,-20,-6
7,37,75,11,0,0,-1,-8
4,-17,-64,8,12,5,4,-4
35,19,-72,-16,-1,-7,-21,-1
-49,-83,-114,-11,-1,3,21,21
24,-1,26,-1,3,9,38,21
-10,5,8,-4,-7,-3,9,-6
-54,-2,-21,-43,-12,-14,-86,-77
-10,3,5,44,-1,-12,-50,-34
5,12,24,-4,2,-3,-1,-3
10,10,6,1,1,0,11,8
24,10,-6,1,3,0,9,10
3,-2,-12,-9,-2,6,19,18
-18,20,-24,7,2,6,31,21
16,-25,-1,-15,0,0,24,11
24,37,86,14,3,-5,-26,3
-7,-44,-128,-26,0,-7,-6,24
-38,-30,-32,15,-6,9,21,-22
-68,-16,0,-17,-11,-12,-50,-48
0,11,-51,-9,-5,-2,-9,-1
7,9,62,6,-1,3,16,9
6,2,41,-37,-13,-6,-33,-12
1,18,-34,-3,-7,0,7,-7
12,-3,-12,51,25,8,31,19
30,23,48,8,9,5,-22,2
5,37,10,1,4,0,3,14
-10,-101,-128,-42,-10,-2,5,-3
-6,-8,127,-10,-22,-14,5,-4
22,13,43,0,-2,4,30,28
-57,8,18,1,4,-1,-8,-14
-42,-1,1,0,0,-1,-32,-30
-16,-25,-23,-4,-2,-2,-23,-9
25,-4,-8,2,-2,-4,-2,3
-1,21,-2,2,-5,-3,10,3
5,-17,-39,-4,-7,-8,16,17
-3,18,-46,9,-1,1,13,7
-25,-24,36,-11,5,24,-15,-17
20,81,127,9,3,3,-4,-40
-36,-128,-128,-45,-25,-20,-27,-15
30,-8,52,8,-11,-11,-13,4
-8,3,127,-12,12,1,-7,1
26,28,72,45,30,10,2,11
5,16,-6,-10,1,-3,18,17
-32,8,-23,-19,-12,0,15,15
-9,-22,-38,16,-5,-3,-3,-9
-8,17,-25,7,6,-3,-6,-26
-17,-14,-43,-13,-7,-4,-31,-13
16,-11,70,-14,-8,-6,9,13
33,10,-56,-7,-7,-1,10,11
19,40,14,1,-2,2,-1,-3
-53,-57,-29,-1,6,9,30,27
-4,-14,-57,-3,1,0,33,13
-11,-9,-28,-2,-2,-7,-61,-48
1,12,-36,3,4,-6,-56,-41
15,36,52,7,1,-5,-5,2
4,-39,30,-6,-8,1,10,8
-18,-18,-65,-30,-9,-5,-3,-7
7,9,-44,29,13,9,10,11
-2,-22,-7,-6,-8,-5,12,6
-4,12,31,-9,-8,2,18,7
35,51,31,1,1,2,53,75
-6,-49,-8,6,7,8,25,22
-11,-56,-33,1,6,-6,-75,-67
-48,-22,-73,-18,-10,-10,-53,-111
10,19,4,6,4,-3,2,13
32,37,18,-10,-7,-2,19,20
-42,19,7,24,0,2,21,8
-9,-69,-110,-36,-7,2,15,25
1,10,46,3,2,2,13,3
3,14,48,-3,-4,-7,4,-7
-28,-14,-19,-2,-1,0,12,-3
5,-2,-11,-6,-3,-5,-31,-10
34,33,49,-11,2,2,-34,-2
-8,-10,-25,-1,2,4,-4,-2
-5,18,5,33,17,7,14,8
5,-67,-128,-25,4,3,28,25
-1,-10,127,-12,-10,-4,16,3
-10,-36,-65,-17,-9,-15,2,-21
-2,10,2,31,-1,-4,-56,-32
-31,14,18,3,1,-2,-13,1
-28,3,0,-12,0,1,23,-2
24,7,-39,3,-6,-1,-1,-3
25,33,36,-3,0,-5,-22,-10
-12,-27,28,12,1,-10,-9,5
12,5,-58,-4,5,2,17,1
-14,6,-40,2,4,8,18,5
-2,-45,-83,-18,-18,-11,-6,0
-30,-4,-21,-24,-10,-8,-2,-11
19,11,34,21,8,1,6,0
12,20,36,9,2,2,20,26
-39,-32,61,-9,2,3,33,33
29,-52,-128,-23,-13,-13,-11,-40
-21,-22,12,-3,-3,-10,-72,-44
-3,11,127,-11,-7,-2,-5,-6
24,28,35,-11,-3,5,8,28
15,2,15,33,15,7,42,15
2,32,21,6,-2,-7,-56,-30
-3,-32,-11,6,2,-1,-33,-29
1,-15,-119,-4,2,-3,4,6
-7,-23,-47,-32,-16,-8,-6,9
2,28,93,24,-7,-2,11,10
-6,-23,-111,-4,-6,-2,15,11
42,21,25,-9,2,5,33,24
-34,12,-105,21,11,4,13,7
10,49,127,-13,-1,8,26,2
-46,-66,37,-4,-6,-11,-33,-40
-8,-42,22,0,-4,-5,-45,-20
32,21,8,1,-2,3,2,8
34,15,-61,-9,-6,-2,61,72
-33,18,17,3,5,5,41,-1
3,-16,58,-1,-4,-16,-128,-106
-58,-33,-21,-16,-5,-3,-38,-61
5,1,-3,-24,-9,-1,11,12
23,11,-10,0,-10,-7,19,23
11,27,53,26,-6,-4,10,16
5,-13,48,10,7,19,17,12
21,3,2,0,16,6,16,20
2,-3,0,-11,-2,-1,2,5
7,8,0,-6,-6,-2,-4,-3
-29,-4,-56,-11,-7,-1,0,2
9,22,99,-10,-6,0,18,13
10,-63,-128,-5,-15,-12,-17,-13
21,-12,-58,5,-13,-13,-33,-19
-7,-3,24,-1,10,0,2,6
-11,15,39,17,16,6,-23,-23
9,20,11,29,9,7,2,-22
-20,0,-6,-11,1,4,20,20
27,15,-2,-18,-7,4,49,38
3,-13,-115,3,-10,-12,20,-24
-82,-46,127,-3,-7,-14,-114,-65
9,-22,-101,-16,-7,-7,-32,-7
19,32,59,3,-1,0,13,20
26,-10,-128,-7,-3,6,29,15
-25,-5,-39,-16,2,6,25,1
-2,12,-13,-10,-2,1,6,10
12,17,37,-14,-1,1,6,1
20,-12,15,28,9,2,-18,-6
-25,-10,-128,-22,-14,-7,-13,-14
-29,7,38,-1,5,0,9,3
18,7,38,5,2,15,25,36
55,10,-47,-8,4,5,57,32
-26,12,-3,-16,-1,-7,-17,-57
-66,-53,-45,4,-6,-18,-128,-67
-27,5,122,8,-3,-5,1,-6
-30,-75,-102,-9,-14,-16,1,-11
-10,8,-33,-15,-14,-7,10,8
21,54,14,11,10,12,26,21
58,0,-57,1,-3,5,16,17
-7,21,62,-9,14,9,10,9
4,2,-3,1,9,6,18,9
-55,-16,-27,1,7,-1,24,12
-6,-20,-41,-9,-2,-2,35,5
19,10,72,6,-14,-10,-47,-45
28,3,-42,3,-1,-8,-114,-37
9,12,-5,-4,-5,-2,2,5
-52,-20,-14,22,6,-6,8,-14
-6,25,122,16,3,-1,-19,-11
16,13,-108,-7,5,8,12,16
0,-63,-128,-17,-10,-5,14,14
-8,7,127,3,-11,-7,13,7
13,7,53,-10,-14,-12,-1,0
-2,7,12,-2,-5,4,7,6
0,1,-9,-1,4,-4,3,0
-5,7,11,4,2,2,-10,-1
-10,25,0,9,9,4,12,14
-11,-57,-128,-26,-8,-11,3,-9
-15,8,8,-6,-7,-8,-34,-25
18,-41,-74,-3,2,3,6,18
38,-4,7,-16,-10,8,31,12
-36,-6,6,8,0,-8,-39,-39
12,5,3,18,10,-1,-65,-31
-2,6,-2,-7,-2,-8,-1,-5
30,12,42,14,2,1,67,72
9,14,-22,-17,0,6,55,11
-15,19,59,8,-3,-9,-88,-52
-60,-72,-128,-30,-19,-12,-58,-47
-19,-8,74,24,-1,-2,3,1
-9,3,43,-15,2,1,16,7
11,6,42,16,12,4,20,17
11,17,7,-15,0,6,22,16
7,24,28,16,0,3,14,7
24,3,-110,1,-3,-2,12,28
18,7,80,-14,-7,3,27,16
-28,-2,-24,-24,-11,-9,0,-7
-24,-34,-46,4,-13,-8,-27,-41
-27,-12,-28,19,24,1,-47,-41
15,19,24,9,9,2,-56,-29
-14,-13,26,-14,-11,-7,-20,-16
10,24,-35,-7,-4,-4,-3,0
2,-55,-128,-10,-2,-7,21,16
24,39,103,-9,-8,3,29,35
36,25,67,-6,-8,14,60,48
-22,-32,-114,-4,-7,-4,3,-19
8,-20,65,-7,-7,-19,-102,-66
-39,3,117,-5,1,-7,-27,-40
-4,15,30,-6,4,4,16,10
8,0,-115,17,10,3,20,19
14,18,47,0,-1,-2,9,17
2,-8,-90,-20,-3,1,-14,19
4,-14,-96,-12,-21,-1,25,21
6,-26,-39,9,3,-2,74,1
7,22,-2,4,7,0,-49,-24
-17,21,76,15,13,0,-42,-20
-12,-13,-73,-4,3,0,-12,-2
13,-5,0,-8,-5,-2,3,9
5,4,9,-5,-8,-5,19,15
-1,-7,-17,-1,3,0,24,15
36,8,-79,4,3,16,6,9
-40,-9,-6,-10,-12,-8,-35,-23
-25,-69,21,-23,-9,-5,13,0
0,-18,-13,-8,-2,-8,-2,9
21,9,-3,20,0,-6,-11,-28
-8,31,73,4,-1,-5,-64,-42
5,-51,-123,2,9,4,9,13
26,-3,-10,-29,-9,-5,34,49
1,6,57,-2,-3,4,29,-4
-40,6,67,2,4,-2,-79,-55
-8,-23,-75,-9,-9,-11,-38,-14
-48,-4,8,-7,-9,-7,-9,-22
5,-10,6,1,3,2,14,10
12,5,12,-3,2,3,21,14
4,19,39,-12,-1,3,12,14
62,73,-51,5,1,8,29,40
-25,-42,127,48,8,2,24,9
-10,-28,-49,-5,-12,-16,-31,-12
-10,-53,-93,-20,-3,-1,-14,-39
-22,15,33,-13,-17,-18,-48,-30
-2,11,16,0,-5,1,5,8
-2,0,11,3,16,12,16,7
3,4,-1,-7,11,3,2,2
10,10,-1,-7,-7,-1,-15,0
9,7,3,-1,-11,-6,1,6
9,16,-1,3,-1,1,22,28
33,9,-2,11,7,9,19,44
-30,-3,-5,-4,-4,-1,10,-14
-11,-36,39,6,-4,-11,-56,-75
-86,2,-50,1,-19,-17,-16,-40
12,-25,-36,-8,4,1,2,26
45,18,78,-7,-8,-1,12,17
-50,5,15,-2,1,-5,-8,-42
4,5,5,-6,0,1,-19,1
12,14,8,4,-4,-5,3,2
8,9,-4,17,10,2,11,15
9,8,-4,-2,0,12,24,18
14,1,2,-5,-2,1,15,22
42,38,78,3,8,10,38,42
-12,70,-99,0,5,-3,57,10
-46,-85,127,-13,-2,-6,-91,-71
-31,-58,127,-10,-25,-19,-49,-73
0,-42,-128,-4,-3,-8,-5,4
-11,7,50,-2,-7,-12,11,16
16,31,46,2,-1,-2,25,7
18,24,4,-4,-2,2,-6,5
-1,12,-2,-7,-3,4,9,4
9,15,24,30,35,21,27,27
45,37,-67,6,17,11,26,22
3,-12,42,-21,-16,-12,-2,-21
-17,-62,-106,-17,-10,-13,-46,-20
-28,8,5,-12,-11,-11,-11,0
-1,8,45,8,-4,-3,13,3
-15,-10,-62,-4,0,0,3,-7
4,4,9,-22,-6,0,-22,-10
8,15,11,16,-2,2,1,2
-19,14,21,-11,4,2,8,5
34,8,-3,9,-7,5,39,36
-28,0,-33,41,22,3,49,17
-26,-7,50,-6,-10,-13,-42,-47
-24,-30,-78,-17,-12,-12,-103,-63
-19,9,78,-12,-4,-2,-8,3
4,-12,38,-11,-4,3,-1,12
9,2,3,-11,-4,1,-1,15
6,14,8,-2,-7,0,57,9
-3,13,2,3,-9,-7,-23,-15
-5,5,-7,-2,3,3,-2,-9
40,22,2,0,0,0,16,25
46,-5,-8,9,-2,6,57,58
-39,-8,10,14,22,27,28,0
-44,-45,-82,-1,5,-10,-84,-74
-39,-54,-2,-18,-16,-20,-64,-61
10,17,47,-1,-5,-5,3,6
26,-7,-106,-7,-3,5,21,25
24,25,8,-10,-1,3,25,22
2,-6,2,11,-7,-6,8,10
14,2,22,2,3,-1,-7,10
12,11,81,10,-3,-4,11,15
9,35,91,15,7,0,24,7
-41,-63,-79,-4,4,6,-9,-16
5,-10,-128,-15,-4,2,-21,-15
-12,-31,-84,-22,-16,-14,-3,-9
15,-6,-1,-6,-5,-3,-2,3
-1,13,34,5,-3,-5,-3,2
6,7,-9,-3,-3,2,4,1
-13,6,38,3,0,3,6,1
2,29,-47,5,4,5,9,9
10,-31,84,-23,-11,-1,0,-5
2,-14,-8,-1,-2,-1,-4,0
-7,12,8,10,3,3,-10,-9
36,99,127,20,16,5,-1,10
-42,-128,-128,-18,-8,-6,8,4
-8,-10,97,-7,-3,-5,22,19
4,2,22,7,-5,0,32,8
-14,6,71,3,2,-1,-37,-39
-11,13,-16,2,-6,-8,-33,-16
8,17,7,6,4,1,-6,-16
36,9,-93,-13,-1,0,-7,29
-7,13,127,-18,-14,-11,10,10
-2,-3,-75,14,8,8,21,-21
2,26,20,27,2,-8,-24,-12
-19,-61,-12,2,-3,-4,0,9
10,19,-93,4,10,8,12,11
22,0,-56,-11,-13,0,31,34
44,-9,-4,-12,-14,-3,16,19
-54,-8,11,-1,7,4,-14,-48
-13,16,13,11,7,1,-27,-28
4,-9,-35,-2,9,-4,-18,-10
5,19,56,-7,-1,2,-7,2
-3,-5,2,-11,-14,-3,13,18
-1,-31,-52,-10,-8,-1,34,18
7,22,39,1,-2,-1,1,0
26,45,-14,11,-3,-8,-26,-10
8,-41,-128,-18,4,12,9,12
-36,-60,25,-11,-4,-5,20,4
-29,7,50,8,4,-6,-27,-38
0,26,64,14,4,3,6,6
17,25,81,-3,-6,-5,26,28
-11,-56,-119,-12,-1,4,12,13
32,1,-128,-23,-4,-2,-18,-15
-51,3,110,5,-12,-17,-31,-46
15,-7,5,18,6,1,4,-1
-16,7,26,-11,6,5,6,9
-12,16,11,18,2,2,9,10
-7,4,-3,-11,-4,-1,19,16
33,8,-4,-19,-1,0,20,25
44,2,-15,0,-6,0,-1,3
13,4,-44,1,-7,-4,-15,-19
-66,-31,72,-5,-9,-9,-17,-17
-27,-12,6,3,10,4,-19,-46
-6,-17,-17,4,11,5,8,-3
7,7,-26,-2,14,6,16,13
7,15,38,-14,-11,-2,17,22
8,-4,-67,-1,-8,-1,22,21
44,78,127,18,-1,4,-17,2
-8,-103,-128,-41,-18,-11,-27,-16
16,-5,16,-31,-22,-17,-32,-23
-41,18,46,49,10,2,1,-13
-1,10,56,9,5,4,8,6
7,21,64,4,3,2,15,9
8,-11,-128,-6,6,4,18,18
12,12,-11,-3,1,0,17,7
-1,5,-89,-11,-3,0,-22,-11
-1,-41,-35,-22,-13,-12,-35,-3
31,25,7,-6,-2,-2,5,-4
-5,13,-1,5,-4,9,5,3
-23,-13,25,-5,-4,5,15,13
-56,-27,-18,31,15,1,3,-14
7,8,-24,8,7,-3,2,-1
6,3,79,4,2,3,-4,25
-5,-23,-95,-14,-8,-3,17,-3
-10,-14,49,-3,-10,-10,-32,-34
2,5,-7,-5,-8,-11,-61,-54
-11,9,2,-2,-2,-4,32,3
47,6,-6,-9,-9,-9,9,20
12,-2,-9,-10,-7,2,18,22
7,1,-8,-23,-2,6,10,8
-11,5,3,9,10,2,-70,-24
27,29,28,55,23,15,21,31
-8,32,36,41,14,12,86,24
-111,-89,-48,-33,-1,-9,-5,-22
-7,-109,-128,-34,-25,-24,-65,-46
-21,4,83,-6,-24,-19,-26,-6
27,37,24,0,-8,-7,17,11
6,16,11,0,2,9,-7,8
16,12,6,12,10,9,4,-8
17,9,-4,2,2,0,-15,-4
10,7,-8,-2,0,-7,9,12
18,14,-8,-12,-2,-4,18,23
12,-1,-4,2,-4,8,7,18
-15,-4,-5,-2,-2,-1,-10,-27
-27,-27,-41,-3,3,-4,7,-17
-15,-10,28,-13,-3,1,27,21
-23,22,13,23,14,3,13,-11
16,-17,-11,14,6,-5,-47,-30
1,-34,-92,-8,-5,-11,-36,-6
23,2,14,-18,-9,-5,4,17
6,16,14,-11,-11,-6,5,8
1,22,21,-1,-3,1,13,-6
-11,20,3,-11,-6,-1,-5,-6
27,-9,-6,-1,0,3,22,22
40,-20,-15,-6,-1,0,18,11
-48,3,25,13,-9,-6,-40,-21
-54,-26,-64,-14,8,4,-1,-29
-9,-46,-35,-4,-1,-6,21,-5
8,-3,12,-2,-2,-3,-3,1
19,17,17,1,-1,3,2,13
16,13,9,1,-1,1,10,16
10,8,4,0,-3,-4,10,9
5,3,-1,-12,-11,-5,-21,-4
-4,1,6,5,-8,1,13,16
-10,5,7,-10,7,7,38,8
21,70,114,62,33,5,-27,-8
17,-15,-128,2,6,-2,-27,-11
-46,-107,23,-24,-18,-17,-43,-25
-97,-76,31,-32,-31,-26,-23,-43
-17,-1,7,-7,-7,-7,10,0
19,32,15,2,0,20,14,15
19,30,9,-3,1,4,14,18
22,19,-5,-1,-2,-1,13,15
16,10,-1,13,5,6,9,6
18,19,18,-11,9,5,28,18
-13,18,4,32,14,5,-3,-1
-8,-24,-28,-7,3,-4,-31,-24
-19,-16,61,1,-6,-8,6,-16
2,-5,-128,-2,-8,-3,-43,-20
-12,23,74,-5,-6,-13,-21,-4
17,-55,-30,-16,-13,-10,-11,-5
-1,9,50,-1,-8,-2,22,2
18,3,0,-5,-2,3,25,22
-15,1,-16,3,4,10,29,28
19,15,-9,3,10,6,17,9
19,11,10,0,-4,-6,-22,-5
-42,-10,8,1,-7,-16,-50,-40
-4,21,59,-1,-3,-6,-55,-53
-27,-65,-15,-48,-11,0,46,-1
31,3,8,-19,7,5,16,13
-59,4,17,36,15,4,15,2
-60,-8,51,10,3,1,-13,-2
5,1,-38,-10,-8,-5,-10,-15
13,5,-2,-12,-14,-9,-5,2
22,11,-1,-13,-12,-2,1,6
20,18,-1,-21,-9,-2,21,34
-22,-2,-11,-2,-6,1,28,-1
-11,-16,-8,10,17,3,-29,-25
18,3,16,4,0,-8,-55,-32
-4,-11,-24,-4,0,-2,-9,-11
4,20,-17,6,2,-3,4,4
-13,-44,-1,-19,-9,-2,3,1
-1,6,31,-3,-6,2,9,5
28,38,10,-4,-4,2,16,16
49,28,80,16,-2,-3,5,18
-26,-65,-128,-32,-12,-1,-10,26
-21,-35,-3,-12,-6,-2,25,-20
-36,13,127,4,2,-2,3,-24
-33,6,36,4,-3,-5,-55,-55
15,-19,-32,-5,-4,-1,-8,2
14,10,-14,-8,-2,2,2,7
25,14,-17,8,-2,-1,22,25
17,14,-13,17,-4,-5,39,39
22,9,-22,11,19,9,34,34
-32,45,93,4,10,-4,-102,-84
12,-75,-128,-5,7,-2,-56,-32
-40,-37,23,-13,-17,-14,-24,-36
-22,-13,12,-10,-17,-11,-10,-6
6,9,17,-6,-8,-5,11,18
17,36,0,8,-2,1,37,37
2,-7,17,-35,-7,1,27,15
1,40,91,40,5,4,-30,-17
-7,-88,-128,-9,-2,-5,-8,-10
-20,2,41,-13,0,1,18,7
-1,10,8,3,-2,-3,14,0
13,1,-7,8,7,-4,-36,-7
-7,15,25,7,6,-4,-4,5
-16,-11,-38,-4,-5,-5,10,3
1,-6,-13,-6,-5,1,20,4
-19,11,113,-9,-7,-9,1,-12
21,14,-31,-6,-2,-1,-45,-19
-31,-29,34,-4,4,5,-6,-7
21,2,-7,-7,-2,-6,-17,0
-4,0,-17,11,3,1,18,2
3,9,-6,-7,-6,-3,21,11
24,3,-5,-1,-5,-3,30,43
-3,10,0,-3,-7,0,35,2
16,46,121,-4,6,4,-65,-25
37,-41,-128,1,3,-1,-62,-43
-108,-113,-128,-30,-6,-3,-21,-30
-57,-20,75,-11,-20,-18,9,-20
0,-19,-17,3,1,-5,4,1
14,26,27,3,1,-5,-18,2
20,17,16,1,6,2,13,13
14,18,-3,8,8,5,0,10
13,12,7,-4,0,11,1,10
6,3,-8,-4,-2,4,27,27
23,38,60,0,-4,1,70,51
8,-1,-72,-20,-1,-1,-11,-5
-3,-9,14,-6,2,-6,-75,-47
-31,-88,2,17,-6,-12,-79,-88
-54,-10,4,17,0,-5,-6,-8
15,19,13,5,1,1,20,18
13,21,15,-12,-8,1,21,22
7,18,5,22,-1,2,16,18
7,7,-9,-8,-2,6,21,17
11,14,-5,-12,0,2,30,16
8,37,68,20,16,2,24,3
-14,-89,-64,-3,-3,-8,-80,-29
6,-19,-128,-26,-2,-5,-5,-3
-18,-4,89,9,0,-10,-32,-24
-25,-16,35,-4,-7,-11,-2,-11
-17,-11,16,0,-3,2,7,3
7,8,6,0,-4,5,10,11
9,5,-7,-4,-7,-5,4,1
5,10,-1,-4,-2,-2,-5,-6
25,23,6,19,3,-1,-3,5
12,14,9,-8,1,1,20,30
7,27,23,-5,4,4,3,9
-44,-26,-1,17,5,-1,-25,-49
-18,-93,-128,-38,-23,-22,-28,-30
22,2,36,-1,-7,-10,-27,-12
-15,20,33,9,10,3,30,18
7,18,7,-5,0,1,31,15
16,25,14,-2,-1,4,5,3
-11,-10,-24,-11,-2,-5,-51,-29
10,2,-1,11,8,0,-12,-6
17,12,15,6,4,6,43,37
30,12,-4,-2,2,3,44,40
-42,-31,-19,-6,-11,-8,-1,-25
-13,-35,-41,-27,-21,-22,-98,-52
-12,27,70,15,-11,-6,-43,-31
16,-51,-40,20,29,12,27,22
15,26,-53,17,11,9,38,23
-4,10,74,-10,-2,0,-13,-8
-5,-25,-33,-9,-1,-3,-16,-1
9,10,34,-7,-8,-3,7,-12
5,20,43,-7,-12,-4,18,16
44,28,-65,27,-1,0,-2,16
-32,13,42,3,3,-4,-24,-8
-53,-122,-128,-31,-18,-8,0,-14
-25,-21,61,6,-11,-10,-11,-18
4,5,2,3,12,0,-2,-17
4,9,35,1,2,0,3,3
4,13,3,-4,3,6,20,28
-2,4,-5,-24,-7,3,35,19
14,8,-3,28,12,-4,1,3
-1,6,-13,11,12,4,3,3
22,-23,-36,-15,-10,0,-45,-30
-4,9,27,4,-7,-13,-94,-43
-4,-37,11,-20,-1,4,13,8
12,16,-62,1,1,1,16,18
4,5,-18,-23,-12,-6,14,5
-38,-10,-17,19,-3,1,9,9
-8,-6,2,7,15,9,20,19
24,4,15,-7,3,-10,6,4
-9,2,-1,-8,0,1,-1,0
-22,7,11,12,-2,-4,-8,-7
-5,5,9,-5,-3,-5,0,-10
-16,-13,34,-5,-3,-6,-45,-22
10,39,9,-1,-2,-2,-7,-1
15,13,65,-2,-5,3,12,15
-2,-32,-128,-7,6,0,27,7
9,-12,34,-3,-9,-10,-55,-8
-21,24,55,8,3,3,2,-2
-5,-20,-33,-6,-7,0,67,1
-6,-7,-7,0,1,1,-4,-6
-12,0,-6,-2,1,-1,-36,-38
5,10,-4,-4,0,-4,-1,-8
-4,1,-5,-1,-3,-2,-21,-3
-4,2,1,-3,0,0,-2,7
22,6,-2,-31,-10,-1,31,34
34,53,46,2,-16,2,49,37
-16,-15,-28,71,31,7,17,-11
-15,-84,-128,-17,7,-4,-87,-49
-52,-30,-52,-22,-14,-18,-52,-55
-46,-11,29,-6,-5,-3,4,-3
-7,17,16,2,-3,-1,19,15
26,-7,16,-5,-10,-4,14,13
8,14,7,-9,-5,-3,14,8
14,12,3,5,6,4,9,7
6,9,-3,-9,-8,0,5,4
19,11,-4,-20,-8,-3,5,4
19,23,10,3,4,13,46,41
6,10,4,40,20,11,33,15
-107,-24,11,-2,0,-15,-43,-48
-23,-55,-34,-11,-12,-22,-86,-74
-1,-32,-84,-28,-22,-13,-19,-9
-10,-5,-113,-12,-9,11,10,10
0,9,127,-7,-8,3,27,29
15,17,31,1,1,3,23,3
6,8,-6,3,-2,-4,-25,-11
5,8,-11,1,3,-2,-27,-12
-1,5,-15,2,2,5,43,9
5,-1,-13,-5,-2,6,16,17
15,-2,-12,-9,-1,-2,6,10
14,19,41,11,1,-2,18,10
5,33,-17,2,6,4,-4,6
-64,-41,27,-8,-7,0,15,-4
8,-30,-19,-16,-17,-17,-31,-22
8,11,57,1,2,3,-24,-20
5,18,54,-1,-15,-14,-22,-15
14,-1,22,6,1,-6,-8,4
25,12,-20,0,-2,7,7,7
-11,5,24,-8,10,6,-4,-15
7,19,-13,10,1,2,7,2
-11,-29,-52,-4,9,1,10,0
11,17,34,9,1,-5,-1,2
12,-6,-13,-26,-10,-1,-17,0
26,8,-12,-12,-6,-5,-2,5
-29,-21,-11,9,-1,1,9,2
0,-5,-5,5,0,3,16,12
10,41,69,6,2,-3,12,5
-16,-47,-128,-1,7,-1,-32,-11
5,43,127,-21,-11,-6,-12,-18
14,-75,-128,-10,-6,-3,1,0
-78,-47,13,-9,-11,-10,-6,-13
0,-7,84,-5,-1,-3,6,10
-5,11,-21,3,10,6,7,-2
-4,5,-1,-1,0,-1,-9,-8
10,11,2,1,-1,1,-12,-2
7,9,2,2,-2,-1,8,3
8,10,-2,-2,-2,3,9,17
8,51,35,3,-2,0,30,21
17,-28,-71,-7,-3,0,33,22
3,-5,42,-38,-14,-9,-22,4
-6,-45,-98,65,5,-17,-80,-73
-93,-77,-128,-21,-3,-9,-32,-44
-16,-9,127,-4,-5,11,-8,-13
9,13,22,-10,-12,-1,16,18
21,23,11,8,1,4,26,24
16,15,1,-3,4,4,25,26
24,9,-6,-10,0,5,10,33
-5,6,-1,12,0,5,1,-14
-3,9,19,6,10,-2,25,-17
13,-6,-111,6,6,-3,-5,-11
32,23,30,5,3,-6,-6,1
-41,-75,-33,-17,-10,-17,-42,-29
-17,-7,38,-11,-16,-9,-12,-16
-41,-75,-33,-17,-10,-17,-42,-29
-17,-7,38,-11,-16,-9,-12,-16
2,-9,-65,-14,-6,-3,1,7
7,8,2,6,-1,-2,6,12
