Channel_1,Channel_2,Channel_3,Channel_4,Channel_5,Channel_6,Channel_7,Channel_8
12,7,90,3,-6,1,16,16
0,43,-128,-43,4,-10,-54,-15
-19,-21,30,-12,-17,-8,-26,-41
-5,-43,-58,-1,-9,-3,-9,1
6,-4,8,16,3,-1,-8,17
9,75,50,16,17,9,58,22
7,111,100,-4,-7,-2,6,-13
-1,-53,-128,-33,-16,-18,-110,-26
-13,-6,99,-17,-12,3,120,19
2,-39,60,30,7,3,41,10
-46,-41,-128,-10,-5,-8,-96,-47
6,19,81,-13,-1,5,13,-13
0,11,59,-8,-15,-10,50,14
2,-33,-4,47,5,2,50,3
-14,10,59,-2,-6,-6,-80,-27
6,-15,21,-62,-4,-9,-16,-7
11,-40,-128,1,-8,-1,2,7
-1,-32,58,-47,-3,0,-15,9
0,12,41,34,4,2,-20,7
-29,-26,9,35,-4,5,93,-2
16,90,1,17,17,4,23,6
5,-46,1,-40,-16,-3,-9,-4
-10,-50,-128,-24,-9,-10,-4,-1
4,-25,13,-23,-17,-8,2,-1
0,-58,49,-24,-4,-1,15,7
6,118,55,-6,0,4,-8,8
5,-26,66,13,7,7,5,1
-1,41,-50,-9,4,-4,-1,-5
-5,42,-55,-31,-10,-5,-7,-4
4,-72,75,-5,-14,0,25,19
9,-4,61,-13,-2,-2,11,14
-3,12,-9,-3,2,1,13,1
-7,-73,28,10,-4,-3,-20,-15
9,40,12,3,-7,-1,2,-1
8,-36,-24,-71,-20,-5,26,20
5,-8,-29,12,-1,-3,26,19
-8,-64,-31,-35,-9,-5,-1,0
-4,10,-30,3,-1,5,2,-9
0,9,-23,0,-3,-3,-18,-4
-4,29,50,16,-14,1,29,7
23,29,94,91,27,18,33,39
11,87,14,-22,14,0,26,-6
-2,41,13,-59,-11,-18,-96,-46
-14,-128,-128,-60,-24,-21,-120,-27
-8,-14,-2,-28,-3,4,-17,-4
9,29,10,-47,-11,1,4,8
9,1,4,50,10,3,2,10
5,-12,0,16,8,-2,-2,3
-7,-14,-72,-27,-15,-9,-4,1
3,-46,24,-49,-15,-4,5,5
-21,5,-71,2,-6,2,-4,-32
-7,22,14,5,10,4,-19,-23
10,26,13,-1,3,2,-40,5
4,0,-1,-3,-2,9,70,11
8,9,-6,-14,1,3,52,24
14,15,-13,26,3,-2,0,17
22,12,25,14,7,7,-20,15
-6,42,83,18,5,-1,-14,-22
-34,-128,-128,-39,-11,-12,-33,-16
-37,92,127,-10,-26,-16,22,-5
-7,20,-128,-28,-4,-9,-33,-15
-1,-11,-31,-53,-9,-8,-105,-41
-2,-77,102,88,-20,-8,49,-2
11,17,-24,26,47,8,6,11
3,39,-1,-25,-4,2,13,12
5,17,-84,-22,-7,3,4,5
0,31,20,-11,-20,0,3,3
0,-1,9,56,19,1,-18,-6
6,-17,-125,25,11,4,9,1
-15,-29,8,0,-3,-4,-23,-4
11,-3,45,-12,-11,-7,13,-4
-12,96,-128,-20,-10,-8,-10,-5
-10,2,-23,-22,-12,-4,25,-7
4,72,123,1,-3,1,-3,-2
-2,-86,36,-2,-6,2,2,5
3,2,-12,31,14,-1,-2,7
-1,38,-15,23,15,7,19,1
1,2,-14,-13,0,1,-17,-4
11,64,-8,-2,0,-1,-14,-4
8,-42,7,-15,-8,-13,-26,2
6,-5,27,22,4,1,-12,-8
-7,14,-13,-1,-8,-7,2,-6
-7,-31,-128,-33,-12,-7,-10,-10
-18,10,25,2,-20,-1,-11,-3
0,-16,-15,45,24,9,6,5
15,-11,87,9,7,3,77,17
-18,46,15,11,-4,-4,-1,7
1,23,127,-39,-12,-1,-7,-1
-19,-86,-78,25,-8,-4,16,-14
-6,-39,-88,-18,-2,2,-4,-8
-13,-20,41,14,-1,1,11,-1
-12,12,-128,-44,-14,-7,-24,-12
13,-48,74,5,-4,0,11,18
-2,32,47,14,-11,-3,15,0
-2,18,12,-21,12,-2,-15,-14
7,4,-5,-10,-2,-8,-36,-5
33,28,-8,-5,11,6,0,26
-16,-50,-36,4,2,0,15,-7
-9,-84,43,-35,-12,-6,1,-11
1,63,-5,68,6,4,12,-1
-17,-6,-75,0,-4,-10,-4,-20
2,6,25,-33,-17,-1,-44,-1
2,-52,41,13,7,3,-13,12
0,-31,-120,15,10,5,46,11
-1,-12,78,1,-12,3,64,6
12,-4,-37,-10,-5,-7,-35,5
17,11,-108,-14,-8,-2,4,23
-3,20,58,-10,-3,-5,-8,-14
-54,-31,-80,-3,4,-8,9,-62
-14,19,-119,-17,-8,-2,-29,-8
7,-4,62,-22,0,15,26,23
9,6,30,10,-2,-13,3,16
1,-58,82,9,0,-4,-31,-6
-9,26,-71,-11,-3,2,24,-19
-10,55,31,35,-2,-5,-17,-12
5,-37,-6,-33,-2,2,11,9
8,5,20,-43,-4,1,15,1
-10,1,11,51,-4,-6,-36,-12
11,-9,4,0,6,-1,8,14
5,-11,38,-32,-6,2,24,7
-4,14,62,-12,-14,-10,-65,-15
9,-74,-128,0,6,-8,8,20
-4,18,-6,3,1,-5,36,10
-35,87,-57,-24,-4,-3,-65,-35
-2,-26,50,14,-2,-10,-21,-33
-12,-5,103,-68,-1,1,0,-1
6,-16,-37,51,11,1,15,12
3,46,70,6,-1,0,-5,-5
5,23,-79,-4,1,4,-4,-3
-5,-60,-128,-29,-6,-2,5,-1
-7,9,-62,-13,-14,-7,3,-3
-3,-19,54,-16,4,-2,7,9
-5,33,9,28,4,0,-22,3
-6,-4,20,3,10,10,71,6
22,70,16,7,4,11,40,29
4,-128,-14,2,-5,-5,-37,-7
-9,5,127,-5,-4,-12,-40,-32
-27,-21,-31,2,-3,-14,-24,-51
-23,-46,-112,0,-13,-5,-2,-3
8,-18,33,-4,9,9,23,6
-4,20,20,28,14,5,-1,4
-8,-17,-1,-15,-7,3,-20,-4
9,44,18,5,4,7,42,16
8,-21,14,16,-10,1,15,3
-5,-21,10,6,18,-6,-48,-11
-12,-1,-128,-4,1,-2,-4,-4
-7,7,65,-5,-4,-4,-34,-1
6,36,89,-17,-10,-6,42,10
6,-89,-79,-17,-10,3,1,10
6,-10,17,-46,0,-2,2,6
-3,15,-77,40,-6,-3,71,-21
-1,19,52,0,18,8,-20,-1
10,-40,-85,-14,0,3,17,27
-4,-21,16,11,7,-4,26,-4
-19,11,-19,-25,-9,-13,-105,-51
-10,22,52,7,2,-4,-22,-12
-4,-6,30,-10,-4,-2,-17,-7
7,-71,-128,-53,-14,4,4,13
-1,106,127,40,-7,-3,31,7
-7,-119,-38,-45,7,2,-18,-3
13,52,-37,-12,-9,-7,-1,5
2,-59,3,11,2,0,-9,7
-13,24,102,6,8,5,4,1
-5,109,-88,13,2,7,88,3
-13,-34,-26,-26,-14,-3,-12,-16
-29,-23,49,62,-7,-14,-47,-21
4,10,-71,-35,10,4,-2,0
13,30,31,49,-1,5,16,7
24,18,17,3,24,12,-7,23
1,6,113,-6,-4,3,-10,-3
-7,-32,-85,-5,-1,-10,-47,-14
-12,-83,22,-7,-7,-7,-2,-22
2,-1,-1,-10,-7,0,14,0
1,127,127,-4,-5,1,14,7
11,-123,-106,-19,-1,6,-1,3
9,37,23,59,3,2,-11,6
-9,-43,-59,-1,2,-4,-2,1
-7,-29,-16,-25,6,-1,-10,-17
-3,-24,78,3,-8,-5,-29,-5
-5,0,-52,-3,-1,-4,-10,0
10,22,-4,11,3,-4,-39,-1
-7,-49,-80,-15,-11,-6,22,-1
-1,-6,24,-36,0,1,10,4
-2,8,90,-11,-5,10,15,1
14,97,86,31,17,4,28,27
3,-74,-109,-5,-2,-5,-4,3
-39,7,59,28,-5,-9,-40,-55
-9,-51,-128,-98,-17,-8,-75,-30
4,20,20,84,1,5,7,7
6,40,127,-16,24,8,-18,4
6,13,127,-36,5,-4,48,20
0,-21,-128,3,-9,2,91,14
2,-1,-45,-12,-3,-1,-15,-1
1,-50,97,2,-12,-7,-90,-26
-1,101,-29,-15,5,1,-7,1
2,-26,1,19,14,3,32,3
6,-5,9,-1,-4,2,16,24
15,28,-1,-53,-7,1,20,13
-2,12,44,43,-2,-2,12,-13
-6,-16,-27,-25,-13,-11,-76,-21
7,45,111,59,11,1,6,6
-21,-111,-128,-25,2,6,9,-8
-4,-14,-29,-21,-8,-8,-24,-8
3,74,78,-64,-12,1,-14,3
-6,-96,35,56,1,7,10,-7
2,-36,0,18,9,4,5,4
12,66,8,-3,-2,-5,-39,4
3,35,14,2,-6,-7,44,29
-1,13,-1,37,2,4,30,5
-3,4,-1,-51,-3,-2,-18,-27
-11,-22,-43,-10,-9,-10,-87,-46
-3,-25,-66,-4,2,0,-9,-3
6,5,3,-4,1,3,7,8
5,-39,8,-37,-9,-2,7,12
-1,-17,7,61,1,2,18,5
8,47,85,27,-8,0,10,8
1,-6,20,61,17,3,20,4
-17,-32,-28,-63,-12,-2,21,14
3,-52,-115,-39,-14,-9,-20,-17
-6,3,-37,-1,-16,-6,1,-10
-10,51,10,1,-8,-9,-29,-2
-8,34,103,-11,-4,1,28,-4
11,79,117,77,10,1,-47,-16
-3,-119,-16,73,19,0,2,-1
6,-86,-128,-60,-12,-2,11,10
-7,-67,29,-8,-4,0,17,5
-1,29,16,8,0,2,19,6
-1,61,85,0,-3,-7,-33,-16
11,18,-21,10,2,2,-32,8
10,1,18,-10,2,4,60,19
7,8,7,-11,-2,3,28,9
-34,-26,-14,8,1,-6,-59,-31
2,34,83,-4,-9,-4,-40,-10
-5,-6,-48,-27,-11,-11,14,13
28,19,6,79,5,5,47,36
-6,12,80,-2,9,7,-7,-18
-21,28,23,-28,13,6,5,-22
7,-16,-36,-5,-4,-4,-75,-32
-16,-10,46,-25,3,-9,-7,-5
-13,-49,40,-5,-14,-14,-67,-7
6,49,113,17,-4,7,-8,8
1,53,30,37,-2,0,87,15
14,-36,-128,-27,14,6,22,15
10,37,85,-8,-11,-4,-5,8
-6,-5,63,-20,-8,-2,0,4
-14,-19,-44,-8,-5,0,-17,-11
5,31,10,-4,-8,0,-30,-1
-7,39,35,16,16,5,119,-4
-9,-128,-71,14,-14,-15,-17,0
7,53,7,0,12,9,14,22
-4,71,-6,-32,3,-3,10,8
0,10,10,-19,-7,-5,-72,-47
12,10,91,22,-1,-1,-12,-21
-14,-51,-128,-24,-1,-6,-28,-18
-14,-42,107,-9,-8,-8,-18,-9
-1,-67,62,-1,-4,4,-17,19
5,11,34,-13,-8,-6,75,12
2,17,88,-27,-8,-1,25,4
-1,-33,-128,16,8,2,-5,6
-4,-2,-39,55,3,-1,-12,-4
-16,71,127,12,6,-7,-11,-15
2,-100,-128,-30,-9,-4,11,9
18,-10,18,-4,-5,-1,6,12
-1,-32,67,-29,5,6,7,-2
7,21,57,49,17,4,-34,-14
0,101,47,0,5,3,44,36
-9,-119,17,15,-4,-3,59,2
-33,-5,-101,-6,-13,-18,-128,-63
1,121,9,-20,5,5,-4,-10
7,38,61,27,1,2,18,8
5,29,126,-10,7,-11,-6,10
-7,-100,-128,-24,-20,-3,10,6
-2,18,116,8,13,-2,12,12
3,4,-27,-9,7,3,33,18
-6,-35,81,40,1,-3,0,-4
-18,29,25,8,-7,-8,-63,-22
4,19,25,12,1,-1,-3,0
0,16,53,-11,-7,-1,4,0
-14,-37,-35,-15,-9,-4,-23,-5
16,4,-31,11,3,7,-2,17
23,41,-17,-22,-1,1,100,34
-9,34,-46,48,4,5,16,-2
-17,-128,-63,6,-4,-8,-54,-39
-20,29,26,-16,-8,-13,6,-40
15,7,-7,-1,2,4,10,21
1,-13,8,-12,-5,0,14,6
1,15,11,15,-1,3,-43,-22
-4,-12,10,-5,-8,-12,-43,-15
7,-6,30,16,0,1,-4,10
7,-1,26,-19,-3,0,15,12
4,45,-26,1,-5,-3,26,9
-1,-60,31,6,-1,1,-1,1
2,-2,-93,19,-21,-1,11,0
-3,-45,34,30,12,-3,-5,-5
-12,-40,-64,-99,-8,-4,-26,-2
-15,-11,7,-1,-9,-5,0,-3
16,-39,9,116,11,-1,21,8
-42,127,41,10,1,2,5,0
7,59,-45,-28,-8,-1,3,-3
4,12,47,-10,-7,-4,36,4
-4,68,-80,-8,1,0,-61,-45
3,14,116,25,-5,-5,-61,-34
-5,-61,-128,-28,3,-3,-30,-3
8,-52,127,-32,-5,4,43,45
-8,23,-103,18,9,-2,41,9
-8,25,127,-10,-8,-11,-47,-23
-4,-42,-128,-16,0,5,-5,-14
0,4,1,3,-5,-1,15,8
1,14,52,-8,-5,-1,4,8
1,24,-50,25,3,0,-1,6
18,25,78,8,-11,-1,90,26
-2,-128,-106,-9,-1,-5,23,-1
-17,127,-13,-29,-16,-8,-104,-38
6,15,-31,-5,-4,-9,35,21
8,31,42,14,0,0,13,16
-21,8,-26,16,1,1,18,-19
12,28,-13,17,11,2,-94,-18
5,-30,52,-30,-1,10,31,7
-12,-52,-128,-10,-4,-5,-53,-41
-34,-106,-126,-21,-1,-4,-6,-24
-28,-46,127,-61,-9,-6,17,1
9,32,36,1,-8,1,-15,9
12,36,32,17,11,5,8,13
4,-2,5,34,-8,-8,3,5
7,15,-5,9,0,3,3,4
3,-34,-2,5,-6,2,1,2
1,61,-11,-8,5,1,7,6
17,6,37,-20,4,3,19,19
-6,37,-128,-61,-16,-3,13,-1
-16,-2,29,127,14,-6,-36,-22
4,4,-128,-32,-1,-3,-17,-1
8,44,65,-15,-8,1,15,5
5,-70,40,10,0,0,-1,-4
-14,-38,-84,-28,-6,-10,-50,-25
-14,-38,-81,-26,-13,-6,2,0
8,-9,5,-7,-8,4,25,35
7,33,73,2,1,2,41,-6
-7,26,99,31,-6,-2,-70,-56
-4,32,28,-20,22,5,-29,-13
-14,-79,-30,-4,-6,-10,-11,-1
4,-60,-68,-25,-5,4,16,23
-5,-21,44,-2,0,8,30,3
-1,85,76,-20,-17,-15,-46,-5
12,75,42,11,-11,-6,7,26
4,-5,8,10,19,10,53,1
-17,11,-39,-117,-29,-11,-52,-50
-10,-22,16,127,17,-4,-61,-29
-4,-17,-43,-24,27,7,15,12
-9,12,-10,-23,-4,-1,20,7
2,9,-12,2,-15,-1,35,9
-8,-10,-28,-49,-18,-5,-16,-6
8,6,18,52,9,3,26,18
13,-23,70,40,17,3,15,9
7,85,101,-17,-7,-5,-63,-11
-20,-41,-128,-25,-13,-6,-4,0
-6,-7,41,9,0,0,12,14
-1,-46,88,-27,9,1,24,5
-4,27,41,36,6,1,24,-21
-7,78,47,6,-4,-7,-32,-25
41,55,118,23,6,9,31,66
-6,-26,-128,-17,-3,4,66,1
-41,-128,-55,-55,-15,-18,-128,-119
-25,3,-124,15,-9,-18,-37,-44
7,9,-9,20,3,-4,32,16
17,10,26,27,9,11,28,49
13,4,17,-30,-1,14,73,53
26,22,30,38,-6,-13,62,45
-27,24,126,-7,11,-6,-59,-89
-23,-61,-128,-44,6,-3,-67,-53
-13,-46,22,-20,-15,-7,-1,-8
4,9,73,32,-2,5,21,16
10,19,49,11,-2,1,22,24
8,16,11,-14,-1,2,19,21
1,5,104,57,20,2,1,9
-9,-11,-56,46,10,-4,-25,-16
-14,-26,-128,-11,-7,-9,-33,-9
1,11,78,-72,-24,-8,31,16
23,-20,83,-62,-25,7,76,75
18,127,39,127,25,9,77,33
-24,-99,-128,15,24,0,-51,-52
-35,-30,-84,-13,-8,-22,-87,-105
-17,-70,-51,-36,-6,-12,-68,-33
-5,32,37,-9,-14,-6,35,14
26,43,96,17,-8,5,33,57
22,34,73,0,2,4,34,38
-8,-27,-48,36,17,7,-4,-25
-19,-81,-128,-41,-14,-12,-27,-11
16,79,111,-4,-11,-9,-8,43
-2,-107,-7,6,-3,3,63,5
-1,-47,-22,-11,-3,-3,-20,15
-2,-12,0,9,3,0,31,-5
-18,90,122,17,4,-8,-94,-72
-18,-45,-128,-3,-1,-7,-67,-32
7,-9,59,-21,-13,-9,0,9
-5,24,57,-3,-2,5,20,20
8,13,10,-5,3,6,31,24
4,24,2,25,-1,-3,28,17
-8,8,34,-21,-13,-12,-21,-15
27,20,16,8,-7,1,-10,11
6,-49,-128,-51,-2,0,-36,-7
-30,-30,-100,46,21,1,-19,-42
-6,24,37,-41,-18,-10,-22,-9
6,-4,66,55,17,7,23,20
4,-12,5,6,-17,-5,26,16
1,-32,-25,-15,5,-9,-23,1
0,74,-20,-43,6,1,-1,-9
2,55,58,48,6,-4,0,1
22,-32,-77,3,7,8,-8,43
-20,-22,11,-22,-16,-7,11,-26
-12,-4,-16,4,-2,-2,-42,-54
-5,-7,-35,-5,-4,-2,6,2
4,46,127,16,7,6,13,7
6,-2,44,1,-6,-4,-30,0
-11,-43,-128,-39,-3,6,-5,3
-7,-24,20,-49,-13,-7,20,17
-1,-127,-11,47,5,-10,-2,4
-14,57,76,2,-8,-6,-28,-19
13,33,-128,-20,4,-1,-14,5
-4,11,55,28,2,0,29,3
3,33,-10,-35,6,5,29,2
17,-47,-44,-1,5,10,2,36
-7,-36,-11,-9,-2,7,21,20
-18,16,-17,1,-7,-13,-57,-57
20,-7,68,-49,-17,-17,-96,-53
-25,56,20,83,21,-5,-58,-13
19,77,49,27,6,7,67,39
6,-103,-128,-23,-9,2,68,74
-14,-3,6,-12,-2,-2,25,-6
-38,6,50,3,-2,-10,-128,-128
7,-29,41,3,5,2,-5,-8
15,21,18,-4,-6,2,22,22
13,11,9,-49,-10,2,29,24
10,7,4,35,14,3,20,23
-5,-25,-103,-23,-11,-10,13,6
-4,-3,21,37,7,-4,-43,-15
0,6,20,6,-5,-3,-2,1
6,-17,-4,-4,6,5,15,22
11,23,13,-16,-16,5,50,38
-9,10,-30,-4,13,-1,-48,-37
-3,82,-22,9,7,0,-65,-38
-15,-51,-79,-58,-16,-7,-23,-15
-16,31,-25,2,-15,-8,3,2
6,-63,39,63,19,9,55,34
-10,-27,-53,5,-2,-1,19,-9
-15,0,25,-8,-6,-23,-114,-53
6,25,-62,-15,0,-5,-2,5
8,33,67,-11,-5,-2,-37,10
5,6,-22,9,4,6,17,9
3,-26,14,13,1,-1,69,3
-8,6,-128,9,-3,-1,-26,11
6,-94,107,-32,0,11,105,36
-3,87,55,-20,-11,-13,6,-39
0,-10,2,1,-2,-9,-101,-63
1,7,13,28,-9,-1,-22,-6
-16,-31,-5,27,22,1,21,13
2,61,-84,-26,-1,6,24,16
6,23,65,-1,-2,2,13,14
0,-71,-47,-19,-1,7,17,-5
1,-16,-128,23,0,-3,-20,-7
-5,-33,-23,-49,-9,-9,-12,0
2,-21,41,-16,-16,-5,7,8
-8,6,74,77,29,2,19,2
15,19,64,-5,5,1,-15,26
1,20,2,-10,-4,0,6,-3
-15,29,-1,3,-3,-3,-35,-34
-12,-49,-87,-47,-13,-6,-31,-27
-1,27,22,19,-15,-10,-23,2
3,-7,-22,-5,7,-1,13,12
3,9,-3,-8,2,5,28,9
5,-9,-2,9,0,3,0,20
10,9,31,-12,-4,-2,-4,6
4,40,39,10,-9,-5,20,11
-8,-58,-126,-45,7,-3,25,-4
-7,-28,-2,11,5,-3,-48,-20
4,57,-27,-8,-5,3,-60,-14
-10,12,56,-34,-6,-4,-52,-40
4,18,106,27,0,6,17,6
-5,-47,-122,75,14,2,30,11
-16,-72,-128,-42,-11,-13,3,-3
-1,-32,55,-68,-18,-10,-6,-5
8,29,-4,38,-4,3,15,9
-1,7,115,2,10,5,4,10
11,11,35,45,6,0,11,14
16,-47,16,-8,-6,1,31,-1
-18,-6,-22,-5,-6,-4,-20,-16
-9,-20,7,-28,-9,-4,-7,0
9,24,100,16,6,-1,8,9
-1,41,-70,12,-5,-3,17,-1
-4,-77,-61,-26,-9,-7,-12,-12
9,17,23,38,17,8,-13,0
6,-14,16,-6,-6,2,-10,-10
2,-8,-10,11,0,-7,-7,-8
-20,-14,-58,-8,6,4,10,2
0,6,-1,-6,-5,-1,22,21
1,34,6,-47,-13,-4,29,-2
5,-39,-8,45,-1,-3,-76,-24
15,31,-25,17,26,9,5,8
-36,23,59,5,-14,-21,-69,-31
-9,-52,51,-12,-8,-7,1,9
-6,-47,-128,-49,-5,3,38,8
-13,-64,-15,15,-10,-1,36,-1
25,27,110,8,-8,-5,-66,1
-2,7,9,11,15,3,65,4
-24,-55,16,21,-5,-4,-35,-24
2,101,-35,-7,1,0,-9,-6
-9,-128,-78,-11,-8,2,15,14
-4,-27,-64,12,4,-1,0,-3
-2,-4,53,3,-7,-7,5,-5
7,127,12,13,9,0,11,15
-3,-36,16,-8,2,1,-6,-9
1,-19,-42,-5,-4,2,-2,-2
11,56,103,16,6,-4,8,8
1,24,127,-15,-2,-2,16,2
-27,-50,-93,-33,-14,-8,-54,-11
3,19,-71,-29,-12,0,13,12
-4,-26,32,12,-10,-9,26,-6
-13,-53,-4,23,12,-5,-60,-23
0,-6,-10,-3,7,6,10,10
7,63,3,-17,-4,-7,-6,9
-1,10,39,7,-13,-6,13,-1
-10,-10,-24,19,7,3,-21,-20
4,-4,-90,-17,-5,-3,-15,-9
3,8,52,-3,-15,4,34,8
15,-11,1,-33,13,6,0,18
6,127,81,20,8,0,17,19
20,-1,127,4,-3,-2,16,6
-30,-128,-128,-35,-8,-5,-41,-35
-18,0,90,-6,-8,-3,-46,-41
-13,-25,124,0,-7,-8,8,15
17,27,59,-7,-11,6,68,40
-6,53,-10,-7,-13,-12,-35,-27
-15,-32,43,84,32,0,-100,-69
-11,23,8,-9,1,1,-1,-5
12,32,-128,-37,-14,-1,19,18
4,0,-128,-32,-6,-3,18,10
-2,28,55,16,-6,-7,2,3
7,-42,74,-24,2,2,40,17
8,-9,4,13,-7,-1,-20,-2
-5,111,44,-2,4,0,-13,-8
-8,-14,-70,-14,10,-5,-20,-12
2,-43,-56,-13,-12,-6,0,0
-6,-8,-88,-18,-11,-4,14,6
-4,-18,-49,-8,-12,-1,16,-1
-5,2,-17,26,12,-2,-8,-12
-1,-9,-4,-49,-16,-7,0,4
15,6,55,33,-4,-5,6,9
16,123,9,-32,7,10,-20,15
-24,-54,-128,24,-9,1,77,-34
-39,-21,-2,-3,-6,-11,-107,-49
17,-2,17,-17,-8,-8,-6,3
-1,36,16,-44,-7,3,13,12
13,-22,51,57,0,4,30,25
0,-50,25,-4,21,6,22,7
10,62,59,7,2,8,3,9
-10,-53,71,-1,-7,-12,-8,-9
-20,-61,-52,-6,-12,-9,-33,-15
5,13,36,-15,-1,0,2,1
1,34,76,-21,-5,-10,-13,-5
-10,-22,-15,2,4,2,3,-5
6,4,22,16,2,5,7,9
12,21,17,-29,-16,4,11,26
6,-99,8,8,5,-3,66,28
0,81,-104,35,13,-4,-48,-3
-29,-27,21,-49,-8,0,-31,-38
1,38,28,49,-2,-7,11,-11
-6,-89,-25,-26,-7,-14,-44,-18
-7,11,-45,-15,-6,-3,-84,-26
16,33,-15,-7,-1,4,55,14
4,-3,7,-6,-3,-1,25,17
0,30,7,-46,-32,-1,17,11
-4,36,94,100,17,6,12,8
12,-62,72,11,39,11,10,18
10,-17,-128,-38,-5,-3,23,3
-11,3,127,-21,-15,-8,-24,-17
-25,-2,-29,-6,-11,-11,-47,-32
-2,16,51,-11,-18,-7,-2,-2
-3,58,87,24,-1,-5,20,10
11,-30,-84,-2,9,4,-34,6
0,-13,-14,-1,-3,1,6,-3
-2,-3,-9,-12,4,1,-1,-15
-4,83,-5,-56,-15,-1,13,4
6,-46,-17,98,15,6,10,18
2,-14,127,32,6,0,71,-1
0,-25,-128,-56,-12,-11,-74,-21
-2,-73,63,6,-6,-6,-37,-18
-8,87,29,-12,-13,-4,-7,0
-3,16,45,5,5,5,43,25
-1,39,3,-19,-2,-3,-17,-10
0,49,-14,-19,2,5,-19,-11
4,9,-12,1,4,0,-32,-9
-1,-2,5,-5,-3,-3,18,-4
-6,-19,-36,8,-3,-4,3,5
5,3,-25,0,-5,3,49,9
7,17,27,-22,-12,-4,-22,-7
9,47,77,42,3,2,-15,-6
-4,-23,-71,12,9,-4,0,4
1,-18,-85,-33,-5,2,15,15
-9,18,-36,-11,-7,-2,7,-14
-3,-5,46,22,-3,-9,-22,-6
-7,-20,18,16,4,-6,-22,-10
0,16,5,-22,-4,-2,-4,-4
7,16,22,-15,-11,3,18,7
4,68,-9,65,4,2,-2,21
-8,21,-23,21,31,2,13,4
5,38,127,18,7,4,-37,-29
16,-13,-79,-31,-3,-3,11,10
-47,-116,-128,-43,-24,-19,-27,-27
-20,-45,127,48,-6,-11,-50,-11
-4,53,113,-10,0,3,-1,6
1,-69,54,-16,-9,2,-10,4
2,15,7,2,-5,-7,8,-25
7,-36,-22,-33,-1,2,-25,-5
3,94,-26,14,-4,1,8,17
-6,23,-32,19,21,6,-9,0
0,74,-25,-7,-2,1,37,-13
9,14,45,0,-7,-12,-35,-10
-5,-21,127,6,-9,-13,-14,-8
-10,-76,-128,-46,-1,2,6,2
-15,-30,79,-15,-1,-2,-9,4
-2,-18,-94,21,0,3,7,5
13,42,84,-20,-1,3,42,25
-4,-2,119,-3,-5,-8,2,-3
-5,61,85,51,-2,-8,-21,-17
-17,9,-128,-45,-8,-5,-52,-15
-5,-128,27,14,0,1,6,-1
1,66,55,-57,2,0,6,-3
0,17,-29,-1,-13,2,-20,-12
-2,-8,0,21,-2,0,2,-1
0,10,-66,-9,20,0,2,1
4,41,5,-3,-2,-4,7,11
-3,-16,-25,-40,-14,0,15,9
-5,-11,-12,73,5,1,-18,-10
5,36,38,28,16,5,4,4
5,-53,-128,-13,1,-2,-2,0
-4,-11,-70,-39,-7,-1,-33,-16
-2,19,39,28,-8,-1,2,0
-3,-50,15,-6,-7,2,45,10
6,74,67,32,5,2,14,25
4,-12,-100,-25,0,-3,-24,-18
-15,-54,51,-29,-22,-21,-40,-33
3,-31,-79,-4,-7,-1,-21,6
-12,37,34,-15,2,1,-17,-27
-22,-26,12,6,-1,-1,-30,-33
2,-73,12,11,6,2,-12,5
20,51,-40,-1,1,2,21,20
3,-23,16,-15,-4,2,24,11
-4,-8,-42,-3,-8,-11,-8,-3
2,18,65,-4,-4,-4,1,-1
0,2,-48,9,3,6,35,10
3,-36,40,-4,1,0,-4,-1
-3,-10,-10,-18,-3,-1,-41,-9
-9,57,-128,-19,-14,-5,45,-7
-3,17,73,-3,-7,-4,10,3
14,16,-128,18,19,5,40,33
-9,-29,107,20,-11,-5,24,-14
-18,33,12,20,-8,-4,-69,-38
-4,-33,-99,22,43,4,-21,-13
9,2,78,-48,-12,-3,12,9
6,13,-86,46,-13,-10,-11,-3
-3,-74,34,-36,-7,-3,5,8
-28,-13,7,59,-6,-4,7,-4
22,56,127,16,6,4,3,6
23,1,-51,-11,2,4,-21,19
-13,-122,-128,-58,-10,-3,16,-4
-17,117,127,3,-21,-15,-1,-13
-9,-71,-2,24,-4,-6,12,12
-2,21,30,16,8,1,8,11
1,15,15,5,0,5,31,1
12,0,-22,-11,1,6,58,9
-4,-46,-35,9,-2,-7,-124,-44
-5,15,-20,2,-2,-9,-73,-34
-8,17,-32,1,-2,-4,49,-5
4,14,-4,4,-3,-2,8,9
-5,9,19,3,3,2,28,9
-16,-87,-75,20,-4,-3,23,5
-6,-33,56,-41,-11,-7,-46,-17
-7,18,-128,-33,-7,-5,-5,-5
-3,-33,8,2,-17,-9,25,4
1,1,55,33,10,3,4,8
12,22,44,1,9,8,39,22
6,9,7,-12,-5,-1,-16,4
5,-7,47,-6,-2,-1,-29,-5
1,17,39,12,-6,0,19,-5
-6,-23,109,3,0,-8,-19,-14
-3,14,-98,-34,-3,-5,6,13
-6,127,84,-22,-7,0,5,-10
0,-64,-8,-4,1,3,-30,-14
7,-14,-5,5,3,1,0,4
-20,-58,-34,-9,-15,2,14,1
13,3,-43,120,32,6,33,28
9,35,127,-33,-7,-6,43,18
-10,-79,-128,-29,-5,-7,-17,-22
-30,-22,37,-9,-16,-13,-101,-62
1,5,-9,-24,0,-4,-19,-3
2,10,38,3,1,4,31,12
8,11,40,-10,1,4,36,23
7,5,4,1,-3,-4,4,15
12,-72,-17,1,0,-5,-20,3
-4,22,-21,0,-2,0,10,1
0,51,33,2,1,1,-10,-8
-6,9,-5,6,4,0,-5,-13
-14,-128,-97,-12,-9,-10,-27,-4
7,21,-17,-7,-5,-8,0,10
-6,25,-128,-9,-3,-2,-16,-14
-10,-70,-40,-43,-7,-1,-43,-16
8,0,-84,-25,0,1,-3,-10
2,-3,-30,38,0,3,13,10
-29,-37,66,-9,18,3,14,1
11,58,57,3,-3,4,-2,14
-4,-45,-128,-20,-10,-1,20,12
-2,-10,69,42,20,6,61,-1
-8,36,-64,-33,2,-12,-54,-19
6,-42,15,-23,-11,-7,-8,4
-3,42,-104,8,8,8,11,8
-13,-1,127,15,-6,2,14,-9
-2,73,44,15,-6,-3,-9,-13
-2,-17,67,-7,-4,-4,-21,-8
3,-37,-128,-9,6,1,18,18
-1,57,79,9,5,4,33,1
-11,-21,-128,-14,-8,-10,-56,-26
-10,-65,-62,-30,-11,-5,-17,-8
-11,-18,37,-19,-1,-1,47,4
1,-3,-10,16,3,3,-32,-8
0,23,21,8,-1,1,-5,4
8,14,10,-4,-3,8,31,22
4,-3,-13,-1,-4,-9,-4,0
-11,8,44,8,-11,-21,-74,-45
11,-42,-128,10,16,12,-8,11
-15,-16,80,-22,-6,-10,-11,-8
-10,-45,86,-4,-10,3,63,5
2,19,9,-14,-4,5,61,4
7,27,-63,15,-5,-1,-23,-11
5,-2,10,4,3,-6,-26,-1
-5,35,-9,13,-4,6,10,12
-2,-69,71,38,15,-7,13,13
-5,21,127,19,7,-5,-26,-19
-7,-12,30,-15,2,-1,-43,-24
5,-35,-128,-70,-8,0,1,15
-7,27,127,31,-5,-2,29,0
-3,26,109,28,-2,-3,-26,-15
3,-36,14,-62,-23,-5,-16,-8
0,20,-39,56,2,4,13,5
-7,-8,31,12,19,2,11,2
10,16,-124,-20,-1,2,17,7
22,-19,-30,-21,-3,3,31,36
10,13,52,-21,-11,1,51,17
-22,1,-33,56,-5,-23,-83,-39
-13,-24,-24,22,3,-14,-109,-31
-4,-8,0,-31,-9,-6,-12,7
1,49,12,0,3,11,39,-8
17,-54,18,7,1,7,25,6
3,16,4,12,3,3,6,-10
4,21,-46,4,7,5,-12,-9
-3,-20,-59,-29,-9,4,-1,16
-15,114,-52,23,-2,-12,2,18
-2,-10,-101,-6,-11,-12,42,8
-2,-31,-18,-7,-9,-8,-18,-21
-2,43,35,-3,4,3,-41,-17
15,15,120,-32,-8,2,15,8
-17,-7,15,86,5,-7,15,6
-5,-12,127,-33,-15,-8,12,-6
-2,10,100,-9,-10,-2,-34,-3
14,13,-128,-23,5,6,56,10
-3,-10,2,34,14,6,-11,-9
-5,-50,8,-24,-8,-9,-23,-12
5,57,85,-28,-33,-3,11,9
5,-77,3,36,48,2,23,5
10,-9,-80,-6,7,7,-4,9
-9,53,124,10,-3,1,-5,-6
-12,-14,-101,-55,-24,-8,20,3
-12,-24,-21,15,-5,-5,-22,-13
0,23,3,18,4,-3,-8,-8
-2,-23,9,3,-1,-7,-64,-43
5,15,53,-39,-5,-1,16,14
4,4,-13,50,12,10,33,7
-5,-14,-42,-4,-3,-8,-21,-5
-1,29,-88,-16,-6,-2,-5,-1
-5,-70,7,-9,-5,0,-9,3
8,-4,76,1,1,1,28,20
10,85,-9,30,-1,1,28,24
-2,-59,37,-81,-7,4,-45,-18
-23,-44,-2,64,-2,-11,-4,-16
8,50,-15,12,13,6,4,3
-9,56,68,-4,-2,0,11,-13
4,3,23,42,-14,-3,-78,-4
-3,19,-12,-33,9,-3,9,9
6,16,-38,-1,3,-1,21,-4
12,-31,73,-36,2,2,3,-4
2,33,4,30,8,0,0,-6
-1,-91,-128,8,-1,7,24,7
-17,-22,-11,-53,-23,-12,-31,1
-5,-50,38,-28,-13,-5,-1,-7
1,46,57,34,13,1,-12,-5
-8,-8,21,-49,-10,-3,-10,-10
14,33,-21,6,-4,3,15,15
12,-13,-22,34,19,7,19,13
0,-55,127,14,-3,0,17,2
6,10,-12,24,7,-4,-13,-1
-3,5,-128,1,-13,-7,-23,-12
-4,-8,15,-19,15,1,2,-11
-15,-43,-48,-34,-13,-8,-9,0
-10,28,-10,-7,-7,-7,64,15
-4,-65,71,-2,-8,-11,-14,-6
18,127,92,17,4,4,-39,-11
18,4,42,39,10,10,82,21
8,8,21,-13,0,-1,-17,-6
-37,-64,60,-36,-12,-4,14,-26
3,1,-36,6,-7,-4,-61,-13
9,8,-85,-11,4,3,17,30
14,43,53,-10,-1,3,38,18
-5,-4,6,19,-1,-7,-60,-37
-8,-26,-87,-13,-3,-14,-69,-20
-1,-5,98,6,0,-2,89,4
6,0,40,24,1,1,36,7
1,9,-95,-2,-4,1,7,7
5,-4,80,-36,-13,-3,3,12
-11,89,-20,24,-3,-1,-6,-2
-4,-35,-128,35,16,6,3,-1
6,34,63,37,23,5,13,17
5,-31,-66,-34,-5,1,18,9
-9,-49,57,-9,-12,-9,-24,-4
-3,13,25,15,-9,-9,-18,-5
-7,11,31,-10,-1,-6,17,-1
6,-3,-42,-66,-12,4,-8,-22
-6,53,-40,127,21,0,-23,-23
-1,-38,75,-4,5,0,-5,16
8,-6,-128,-9,1,1,16,15
1,16,-6,-18,-8,-1,18,6
-5,-23,127,-16,-9,-1,12,5
-4,13,-6,-4,-5,1,31,6
-24,19,-18,-15,-11,-4,5,0
3,0,12,1,1,-15,-71,-8
1,17,22,-16,-6,-7,-34,-13
10,54,43,-33,-8,9,57,24
-1,-55,-5,54,16,8,23,6
6,35,127,7,3,-2,39,-29
-9,-84,-128,-12,-6,-11,-43,-35
-12,45,23,-14,-11,-6,-31,-8
1,-15,109,5,2,3,-7,10
-1,-33,-10,1,1,2,18,7
2,-1,-32,-43,-15,0,20,13
4,2,-29,45,0,1,8,6
9,-7,-26,-10,34,10,-24,3
-4,13,64,10,5,1,-7,-23
6,21,110,32,2,9,23,13
-4,-21,34,-13,-12,-10,-8,0
6,34,-128,-6,-27,-10,-10,-1
6,44,-14,26,37,1,-25,-1
-11,-43,-56,-20,1,-2,29,5
-19,11,56,-49,-14,-7,10,-12
23,-47,94,-17,-16,6,18,35
-10,0,-34,67,10,1,56,-6
3,-29,8,-2,1,0,-41,-40
-23,34,-21,83,21,-1,-58,-42
-5,79,-2,-13,-2,-9,-31,-8
-6,-98,18,-19,-8,-4,-5,10
15,37,25,-11,-8,3,9,12
-12,-1,-8,-14,-2,1,36,3
11,16,-25,1,1,0,19,11
9,-2,36,-7,2,8,6,7
-6,-1,126,5,-6,-7,-28,10
-7,-28,-128,-21,-20,-7,110,23
-28,-51,127,1,-5,-13,-32,-35
-9,46,1,-23,-6,-11,-107,-47
5,3,127,29,-1,-1,-26,-7
-2,73,-70,-8,23,5,21,9
-6,54,126,-16,-8,-3,13,0
-3,-49,-128,-24,-3,-2,-4,-12
0,76,48,-32,-20,-2,-15,6
23,-66,24,1,5,4,19,24
9,61,19,90,19,3,18,2
-8,32,9,-10,-2,-8,-62,-20
-17,-49,-128,-40,-23,-12,-5,-6
-2,-22,-128,-11,4,0,16,6
-1,2,51,8,-17,-7,-20,2
-3,16,43,27,15,3,6,-5
17,-9,-58,-20,6,9,22,15
-8,68,9,23,2,0,6,-5
10,20,127,10,1,1,6,3
7,-23,-128,-10,0,4,17,4
-15,32,63,-4,-3,3,7,1
-13,-18,-128,-24,-15,-15,-21,-15
10,8,36,-9,-4,4,4,11
-5,-76,18,-4,-9,-4,6,-2
4,8,29,4,6,8,61,-1
-12,-15,-25,26,-3,-12,-42,-29
8,31,-2,-17,-4,-16,-39,-12
-18,18,-9,-8,-7,-4,-21,-4
14,-26,-8,-31,-1,8,5,15
2,8,11,57,8,2,4,7
6,-34,-74,-8,7,3,15,11
6,29,75,6,1,4,20,4
-12,-65,22,1,-12,-11,-17,-6
-7,56,-79,-30,-20,-11,15,-3
3,28,-27,-2,18,10,-62,-21
11,-11,42,-6,-1,-6,-12,0
-7,12,127,9,5,-2,-17,-8
13,-100,-128,-6,9,15,80,36
-10,9,127,44,-11,-8,-14,-11
-11,39,56,-38,-15,-7,-33,-22
-5,23,-6,-39,-10,-2,-22,-19
6,-39,64,73,22,3,17,13
-2,119,-82,38,1,-4,17,1
1,-9,-84,25,19,2,-20,-7
9,14,41,-23,-6,-1,-2,4
0,-12,7,-36,-16,-3,7,6
10,9,-50,-19,-3,4,3,12
-3,-19,-84,44,14,0,5,5
-8,3,55,-19,-15,-8,-6,-13
-6,-12,-7,-9,-6,-2,-2,-5
-30,6,-27,-22,-8,-5,-23,-14
5,-45,44,22,0,4,49,33
-2,4,-32,-11,5,5,40,-4
-5,33,-68,-5,1,-2,-93,-39
-6,-22,83,0,-1,-10,-51,-16
11,44,47,8,0,0,25,21
7,-5,65,6,3,8,57,17
-7,32,-93,5,2,-3,-41,-22
-18,-44,-103,-21,-14,-15,-54,-29
0,-19,55,3,2,0,0,4
7,28,22,-3,1,5,15,19
-12,37,3,-13,-4,-2,25,-11
10,28,127,-30,-8,0,12,-3
0,48,-116,43,14,3,-7,2
3,-29,84,-9,6,3,-4,5
-14,-58,121,-68,-17,-6,0,4
-19,-58,-128,58,22,7,25,9
6,-10,-17,-20,-9,-7,13,0
4,21,119,1,-8,-7,-53,-14
0,-17,-10,8,0,-5,-14,-10
-6,23,-15,-35,-10,-8,-6,-3
2,-40,-14,32,11,4,14,6
5,-17,3,-12,0,5,7,-1
-7,-41,-22,-9,1,1,13,6
5,12,36,-14,-6,-4,2,0
2,57,2,15,8,2,-1,0
10,43,-33,31,6,4,6,-1
4,16,106,11,-3,7,31,10
1,-44,-12,-22,-12,0,-8,-7
-11,8,-20,-18,-12,-20,-86,-12
-12,-3,2,3,4,-2,7,0
-1,-37,4,-3,-5,2,-6,-5
-1,-4,-22,16,-2,2,-17,-4
5,68,44,3,10,8,16,-3
4,-38,127,17,1,-2,-27,-9
-14,-19,-128,4,-5,-10,-10,-8
-28,-71,-118,-16,-13,-7,20,-1
11,17,124,2,-7,-5,13,24
0,19,100,-8,6,1,-16,-16
4,4,29,-34,-9,6,-2,-8
-1,4,27,-6,1,-4,-20,-2
9,-1,-89,68,31,1,8,10
-18,-20,-14,-12,-16,-11,20,-4
0,-40,-85,-6,0,-2,6,7
-7,-11,-76,-40,-13,-4,-8,-5
-7,0,24,14,-2,3,-2,2
4,-16,-6,-17,10,5,3,6
-2,-55,-25,-2,6,-2,32,3
1,82,23,-9,1,-1,-38,-12
-1,-46,15,-8,-9,-5,-59,-16
-5,4,-29,-4,-3,3,65,11
5,30,-14,-8,-7,2,21,3
2,0,7,1,-6,2,0,-15
-12,-16,-71,10,12,-12,-49,-34
-9,38,-9,-8,-7,-8,-20,-1
-1,-47,46,-22,-6,0,13,10
7,22,127,8,-10,-1,29,14
-2,-27,-128,36,18,3,7,6
-2,-15,108,-15,-11,-8,-21,-12
1,24,127,-1,-5,-2,-19,7
-15,-102,71,-26,-25,-8,-14,-9
6,68,28,39,8,10,60,4
8,-12,9,6,19,3,-44,1
-9,11,-14,-8,-4,-6,-4,-5
-1,29,-16,-10,-3,-2,36,-12
2,-29,-43,-35,-5,4,-8,-3
0,-28,-18,30,-2,-7,11,1
-26,-2,-29,3,10,-1,-19,-4
6,-5,-83,20,-4,-1,14,9
5,-20,74,-65,-17,0,17,16
4,4,-107,-5,-4,1,1,-8
-2,-28,-64,56,22,3,-12,-9
-17,-26,-8,-30,-4,-12,-29,-21
0,-20,61,-7,-8,-5,-4,-1
8,1,82,-50,-2,5,33,9
6,-8,54,24,-10,-2,5,6
-6,30,-71,31,2,2,23,8
13,1,10,-34,15,1,26,16
-20,-22,-3,5,-7,-7,-13,-4
12,20,44,-22,-9,-5,-71,-7
17,-17,-30,-2,-1,1,33,-5
-17,-32,-74,28,-4,-10,-65,-12
1,-35,-120,-4,1,-2,26,3
-5,120,25,-3,-6,-4,-60,-22
-2,10,96,-9,-4,-4,-4,0
-13,29,29,-6,-8,-2,2,-11
-8,0,12,-22,-15,-4,-6,-3
7,-4,-10,-35,2,5,15,16
0,-2,-17,60,36,9,-1,7
16,35,4,-3,1,2,12,9
2,-11,-56,2,3,1,-9,-8
-6,-23,92,4,-15,-13,-1,1
-7,-2,46,-21,-8,-3,10,12
-47,-118,-128,-30,-11,-4,8,-6
-5,-10,106,-20,-17,-10,-39,-17
2,42,82,13,-8,-4,-56,-22
12,21,-10,32,19,8,43,10
-2,-28,-29,-5,8,5,-2,-1
10,27,15,23,-6,-7,-47,-2
3,6,-15,-31,-2,5,9,2
4,-20,-1,-25,-4,2,22,6
1,11,33,16,4,4,9,2
1,-6,2,-5,8,5,-4,-2
-12,17,-73,-11,-5,0,2,0
6,-31,-109,4,4,6,7,16
7,-23,-38,-6,-12,1,39,11
-14,1,75,-4,-12,-14,-11,-18
-15,-9,17,-14,-11,-5,-26,-14
6,64,22,20,13,10,22,6
-14,-28,-38,-15,-6,-9,-2,-12
-15,-39,22,-14,-13,-17,-57,-20
-2,-50,7,-34,2,1,-60,-10
6,43,8,-40,-22,3,111,17
11,3,-26,57,4,8,36,22
-5,8,-15,-26,12,-6,44,17
14,7,1,-13,-6,-1,-23,2
12,73,120,8,0,0,-58,-16
-2,-31,-128,-15,-4,-4,-24,-13
-49,-55,84,-34,-9,1,-1,-24
-12,-8,84,15,-13,-6,17,0
6,-2,67,-15,5,-5,3,9
5,33,36,-13,-1,5,18,7
9,2,1,-14,-17,6,9,10
21,53,-12,109,50,-2,3,9
-15,-54,-30,-3,0,-4,48,-20
-19,-34,-76,-31,-13,-9,-58,-24
-10,-14,32,-14,-14,-5,-6,0
1,8,-12,-5,-5,6,50,11
5,33,94,-40,-8,4,7,8
3,-34,-49,6,-2,3,6,8
7,-2,72,-33,5,8,13,5
-8,-43,-128,44,23,0,-20,-11
-9,31,57,-27,-17,-5,20,9
-20,-63,27,48,17,2,0,-10
5,-19,9,-3,0,1,-33,-11
-3,-63,-20,-18,-9,-8,-23,8
0,32,-4,-14,0,7,28,10
-6,-7,-15,-9,-14,-15,-36,-21
-2,34,28,17,-4,4,-1,-11
2,-94,-69,-17,12,2,-4,6
-11,22,-44,0,5,1,5,11
3,9,90,2,-6,-7,-42,-19
-6,-10,127,-9,-6,0,105,-11
7,9,-128,-22,-3,-1,3,7
-12,-26,67,-3,-12,-15,-16,-5
0,-7,27,-14,0,2,-20,-2
3,-7,33,-23,5,5,0,2
6,11,80,47,5,9,-5,5
-12,7,18,-5,0,-6,8,-1
5,2,-51,-29,-9,-5,11,9
-2,5,39,-30,-9,-4,21,2
7,-20,-54,31,5,2,-46,-6
-3,17,-59,-1,-6,3,17,10
-7,19,113,81,18,-1,5,-7
-8,5,-94,-18,11,-1,-32,-34
-5,-8,31,-9,-10,-2,-34,-15
-5,-3,127,-10,-10,-11,4,-1
2,9,-112,26,4,2,18,9
-7,-62,65,-3,-7,2,17,9
3,-7,-7,-34,-15,-5,9,7
6,-2,69,10,6,8,8,5
3,12,8,12,0,1,-1,7
5,-69,-98,-20,-9,3,49,2
-19,-63,-22,31,8,-1,14,-13
-28,-7,-56,-30,-13,-13,-41,-33
3,5,1,-5,-2,-4,-45,4
5,9,13,-9,-4,-2,-9,1
4,-18,15,-3,-1,0,22,-4
9,31,2,-1,0,1,-16,-7
-12,-40,8,-7,-6,-7,-4,3
10,21,-13,2,0,10,22,18
0,-6,-5,-9,-4,-3,51,19
-7,36,-16,6,-2,-6,-32,-7
-15,-51,-11,-32,-8,-12,-40,-31
-13,-6,2,7,3,4,-8,-9
5,12,13,-1,6,6,14,8
-1,-73,-64,-11,-6,2,23,12
-3,116,127,64,-2,-3,-2,2
-3,-39,-128,-13,4,-3,-67,-11
-8,-24,-128,-7,0,1,85,-8
-4,-25,-46,-19,4,-4,-8,4
-5,-17,76,-1,-9,0,27,10
6,59,30,-31,-8,1,-2,1
20,33,50,20,-5,0,-11,0
8,0,14,21,22,7,4,2
4,-23,14,-14,-11,-8,-10,3
14,40,32,0,-2,-1,8,6
-5,11,17,-92,-22,0,-4,-3
-22,-100,-76,71,-16,-5,21,0
-5,-34,-36,20,32,2,2,1
7,3,-64,-13,-4,-6,-18,-11
-7,8,40,-16,-7,-8,-29,-9
-1,-34,3,-5,-7,-5,-26,4
2,53,45,-34,-11,6,50,29
34,75,87,11,-5,14,43,5
-22,-12,-128,21,22,-8,-92,-60
-19,26,76,-8,-7,-11,-50,-27
-2,0,119,-24,-13,-4,13,12
3,72,-15,-5,-6,-2,12,15
12,-95,-40,-8,-3,3,27,28
13,17,105,10,5,5,30,12
-3,-57,-75,0,2,-2,-9,-17
-7,-28,-35,-14,-2,0,-27,-8
-2,0,-97,-8,-2,-3,-3,-1
-4,9,87,-15,-4,-2,6,0
-9,-2,-30,33,-2,2,9,2
-7,-14,70,-67,-30,-7,12,-4
-6,3,7,57,13,-1,-2,5
2,12,-19,-1,28,11,25,7
14,-6,5,-10,-7,-10,-49,-9
1,26,-53,-23,-12,-9,-58,-11
-14,15,17,-19,-14,6,96,-10
-5,-7,-23,-7,-19,-6,5,7
2,-47,-19,34,23,4,38,10
-10,79,-44,-50,-3,-1,19,-6
-1,50,47,-40,-3,-4,-37,-7
2,-62,-58,-20,-16,-7,2,10
8,-50,79,84,27,9,-4,13
-4,22,8,15,-8,-5,13,-7
-28,-18,102,-10,-9,-9,14,-13
6,53,51,-35,17,8,-21,-17
16,-3,-89,4,-3,-8,-32,6
0,52,-27,-9,-2,5,29,18
-7,-12,-25,-21,-21,-6,-3,-8
-17,-24,127,46,14,-3,-36,-34
-1,-15,85,5,-1,-3,-39,-20
2,14,36,2,-1,-2,-18,9
10,-24,-60,-5,1,11,78,19
-2,-17,-32,-10,-8,-6,80,4
-10,6,17,-6,0,-2,-2,5
4,-25,-122,1,3,1,-20,-1
-1,-10,-102,-13,1,0,-21,2
-7,1,112,2,2,0,-31,-21
0,-31,42,-5,-2,-6,-13,-16
-12,-113,-128,-8,-8,-5,17,-1
-9,62,127,-8,-16,-10,-19,-5
-2,13,-111,61,11,-6,14,0
7,-3,-18,-17,4,3,-35,-3
10,3,10,18,-5,3,15,24
9,68,9,-19,-8,4,36,11
-8,-17,42,11,-2,-2,-4,-19
-6,108,9,-52,-6,-1,-30,-14
-4,6,-57,-9,-9,-2,-1,-3
-6,-31,91,36,-4,-12,4,-4
5,-10,-128,15,6,3,25,10
-1,-38,18,-7,-6,2,-10,11
1,9,127,-15,-12,-9,-12,-5
9,12,-14,-40,-11,2,58,-4
-8,-45,75,80,16,-6,-6,-13
-18,-19,-128,-25,-2,-9,-94,-33
11,13,4,-10,-10,-6,-21,2
-6,15,-12,-9,-6,-4,6,5
1,1,11,-1,-2,1,13,9
1,79,5,2,2,2,3,2
6,-31,-5,-1,4,6,55,27
15,51,-3,0,5,18,73,27
18,88,28,-16,-1,-14,-36,-12
-16,-22,1,47,-3,-17,-61,-48
-15,-60,-128,-28,-4,-7,-93,-22
-5,31,64,14,0,5,29,11
-5,8,-48,19,5,1,36,2
0,-19,-113,-2,4,0,-74,-18
9,56,65,-72,-25,-3,-9,0
5,17,-128,97,15,4,53,14
4,-45,-29,-17,23,10,48,16
-8,-26,127,7,-7,-1,9,-3
-5,-34,-35,14,1,0,-20,1
3,54,33,-6,-9,-4,-6,1
6,-50,20,-64,-27,-9,-2,7
0,127,52,17,-24,-2,0,-1
14,-7,23,85,52,20,27,16
-10,4,-128,-7,8,-1,-27,-15
-13,-52,31,-32,-12,-12,-47,-18
-13,-15,3,-24,-21,-12,-27,-25
-2,0,56,-14,-11,-5,8,3
6,8,5,-4,-6,2,16,10
-5,-27,-32,2,5,6,45,3
15,57,-12,-9,0,3,-14,16
12,-70,-27,15,2,5,20,17
15,25,12,0,-3,-11,-42,-11
-17,64,-27,-5,-8,-15,-37,-33
-42,37,21,-9,-6,-5,-45,-41
-11,-109,-128,-7,-3,4,-2,-5
3,-2,52,-13,-2,9,60,14
8,12,63,-10,-3,6,24,20
9,8,78,14,-20,-4,9,17
-8,-15,1,70,39,1,6,-7
-18,-18,-45,-62,-4,-10,-44,-22
20,20,-68,-4,-10,2,19,9
1,8,-39,-7,7,-1,48,9
3,-27,68,3,-3,0,-22,3
-16,2,-6,-40,-14,-10,-45,-11
5,7,-32,-8,-9,-7,-28,-14
3,-6,9,-46,-26,-3,8,4
-2,-122,-52,103,38,9,32,11
0,16,-128,-3,9,0,25,11
12,10,63,-40,-16,-6,-34,4
-2,18,79,34,-3,-2,-29,-10
-20,2,4,-5,-1,-2,-19,-33
-11,3,39,-40,1,2,0,-14
-4,1,36,24,-4,1,13,3
10,0,0,-15,-1,0,5,10
20,5,126,24,7,6,13,23
-2,31,-70,2,5,4,-2,-7
-17,-93,0,-39,-17,-16,-61,-36
-3,127,61,2,-7,-7,-19,-2
-6,-125,59,7,3,5,62,1
6,-22,46,9,1,-2,-10,9
-17,20,-9,2,1,6,35,3
4,22,-32,0,0,2,40,11
-13,0,-28,-8,-4,-14,-60,-15
4,12,8,-16,-8,2,4,-1
10,-1,-1,21,10,-4,-16,6
10,4,-34,10,14,1,-7,-3
-15,3,34,-16,-14,-3,18,0
12,-4,27,35,9,-2,-6,16
-16,-19,20,-55,-16,-11,-13,-17
-13,-20,-88,38,1,-5,-55,-47
2,61,4,-55,5,3,1,-4
3,-65,127,13,-10,0,14,12
-2,-86,-128,-26,1,6,21,13
-11,-24,-22,-19,-13,-2,18,5
4,17,74,-4,-4,1,-3,-1
7,26,48,46,10,-4,-2,6
3,4,-49,2,6,3,1,5
6,-26,-128,-10,-1,2,4,5
9,29,85,-25,-4,4,13,10
-24,59,21,15,-11,-17,9,-11
-7,-23,7,23,8,-7,-15,-15
11,-36,-16,-16,-1,7,-5,16
4,-27,42,-15,-6,2,43,3
-4,16,-36,-23,10,-11,-74,-34
-5,-16,5,-11,-3,-7,-63,-28
-2,38,-18,-5,-10,-4,-24,22
5,-20,50,-5,-4,11,81,24
-4,26,64,4,-3,4,92,9
-14,-20,-64,-7,-10,-20,-97,-53
-6,27,-128,26,5,-7,-55,-11
-2,-69,-128,14,6,10,-15,10
-1,-2,-51,-2,-1,1,88,10
5,47,127,-26,-10,2,59,19
-6,-40,43,14,-10,-4,27,7
18,2,16,-16,2,4,-44,7
1,36,52,41,13,2,-11,-1
-2,-2,-3,-12,2,-7,-43,-2
-14,-17,-128,-34,-21,-17,-23,-12
-9,-78,43,-18,-6,0,3,2
8,11,23,9,-8,3,13,6
11,1,31,-25,-11,2,3,5
3,-19,2,114,31,13,49,-1
3,60,28,-22,1,1,-15,-9
-18,-128,-128,-8,0,-3,-7,-15
-14,-4,-59,-12,-12,-11,-25,-6
-7,-13,-8,-23,-14,-8,-10,1
-2,-6,75,-16,-8,-3,5,2
11,43,-58,10,0,3,11,6
5,-15,14,-7,2,4,6,6
3,-40,3,18,12,5,-16,7
4,106,9,-9,-5,6,7,-3
4,9,-36,62,13,-7,43,3
-4,14,10,-1,0,-7,-57,-27
-5,-30,13,-17,-12,-11,-37,-27
-30,0,67,-3,-28,0,-29,-27
1,-74,-63,-16,30,9,18,14
0,11,-7,13,7,-3,-24,7
14,35,60,-11,-6,2,46,32
-3,-37,-52,1,-11,-1,-24,-28
-14,-44,-128,-45,-11,-7,-44,-23
0,18,-44,-48,-12,-5,1,2
4,23,22,56,17,5,34,19
1,-92,-31,-3,2,0,15,15
-4,11,16,-3,-6,-7,-10,-4
-1,127,55,-4,-6,-6,-27,-14
6,3,59,-53,-10,-1,-3,2
-1,-40,-16,56,4,0,4,-3
0,-71,-128,-22,6,4,27,16
-2,-32,127,-60,-13,0,29,7
2,14,-5,31,-5,-3,8,-18
-3,21,8,-17,0,-14,-98,-42
-11,-24,-46,-30,0,-4,-9,-3
10,44,64,2,3,4,11,14
-4,-23,-76,-1,7,1,5,5
-8,10,27,-16,-8,-1,8,-1
-15,-24,-26,6,-19,-8,7,-3
0,76,-38,3,7,4,8,8
2,10,41,-11,0,4,-15,1
14,-25,-43,1,-7,0,60,-4
-2,-55,-13,-5,-11,-16,-18,1
-24,-9,18,-5,-2,-3,-12,-6
-7,20,31,28,0,-5,-18,-8
2,6,-13,-8,4,2,0,-12
7,45,15,-23,-8,4,26,5
-5,58,10,6,1,-1,-14,-9
-10,-102,-7,25,5,0,-42,-22
8,-49,20,14,20,4,8,-1
34,68,-9,13,0,1,28,32
-7,43,-65,-22,-16,-7,8,7
-3,2,36,-39,-25,-8,13,-5
-15,-11,66,55,15,0,-37,-21
-9,-57,-91,-32,13,-6,-9,-5
-6,-14,-78,-22,-9,-8,-12,0
1,2,16,-1,-7,3,62,8
7,27,97,25,0,8,22,10
6,-32,-128,-59,0,4,26,17
-10,-46,127,-9,-18,-11,-57,-11
2,81,62,74,6,-4,-29,-9
-13,-25,-10,-9,1,-3,-16,-26
-10,2,17,5,0,-12,-14,-10
3,-8,-48,-6,-8,-2,-2,2
-1,97,12,-53,2,6,-6,4
14,-92,30,15,2,12,17,19
-5,49,-21,11,1,-8,60,3
-2,20,-40,-14,-10,-5,9,-8
-5,-3,-7,0,-2,-7,-51,-3
-10,-15,36,-12,-4,-1,-47,-35
-2,15,110,-18,-19,-4,-9,-17
6,-51,-128,14,8,3,-16,19
-12,49,108,29,8,5,0,9
-24,12,121,-16,2,-3,26,-20
-13,21,-108,-27,-14,-12,-51,-20
5,15,-128,-17,-3,-3,21,12
9,16,22,18,6,6,7,15
-10,-24,43,-5,-6,2,11,4
12,-38,-55,16,8,4,-10,10
-7,102,41,-10,-7,-9,-14,-9
-7,42,19,-18,-11,-9,0,-1
3,3,7,-71,-12,0,-46,11
9,-48,-57,82,23,11,91,23
14,20,-52,73,24,5,122,4
-24,11,81,-24,-18,-15,-73,-51
-17,36,64,-14,-9,-5,-50,-31
-4,-58,-128,-21,-6,-2,-17,2
13,36,81,-18,-16,7,11,16
20,-17,25,20,4,10,35,31
-11,-5,-52,-19,17,-1,23,-12
-24,-68,-128,-18,-2,-5,-83,-43
1,44,1,-3,-6,-7,-10,4
-4,19,103,-6,-17,-14,-22,-2
2,-6,18,-13,-25,2,54,9
12,-23,-63,86,33,6,28,8
3,23,-40,-10,11,10,0,6
13,53,64,4,-3,-2,-17,9
-24,-89,18,-9,-10,-6,15,-6
0,-13,-128,-48,-9,-4,-5,-9
-6,-18,48,33,1,-4,-44,-17
8,51,-60,-24,-4,3,4,6
-16,-41,3,-2,-11,-4,-27,-8
6,20,53,29,3,4,6,16
6,-11,-128,4,15,10,82,22
7,-35,127,-14,1,-3,-6,10
5,89,51,18,-4,-3,-12,-11
-17,-49,-41,10,5,-8,-37,-35
-17,32,15,-16,-8,-10,-41,-21
-14,-12,35,-1,-1,-5,-17,-2
3,-4,-54,-7,-3,4,-2,10
7,11,28,-8,-3,4,54,12
7,9,-65,5,-13,2,24,15
2,-11,-68,8,20,-1,1,7
9,76,81,-54,6,6,-10,3
-3,-128,40,55,-4,-14,-8,-5
-13,-25,5,-14,-2,-5,1,-18
-19,18,124,-5,-7,1,-5,-4
13,25,-73,-10,-16,0,-2,10
-17,85,-94,-8,13,5,9,-3
2,-43,40,-15,3,-3,15,3
-6,44,11,-11,-13,-10,-51,-16
1,-30,-63,-13,-3,-1,6,7
-5,-36,15,5,-11,-1,3,-4
7,27,30,0,3,0,-41,-14
-8,32,-1,-17,-8,6,60,9
11,8,-8,47,34,6,11,7
0,-46,6,0,5,2,12,5
-19,15,-29,52,13,-5,-45,-19
3,-68,41,-18,0,-2,-7,7
2,26,-5,-8,-9,1,87,-5
-7,-43,38,-9,-7,-9,-78,-33
-12,28,-1,-18,-11,-12,-9,-10
8,30,58,0,0,8,26,20
8,48,-61,-1,-4,1,20,19
-6,-52,-39,-2,6,-5,9,-7
2,42,127,18,-1,-6,-6,-6
2,-13,-39,5,0,0,-35,-4
-4,73,-6,-12,-8,-3,0,0
-9,-16,-37,-5,1,-1,0,3
5,-2,27,-13,-6,-3,3,3
10,-7,5,2,4,12,22,13
2,93,48,20,22,0,19,8
-1,-101,16,-25,-6,-11,-33,-10
-1,-25,21,-37,-19,-5,-14,-4
-2,30,-51,58,6,-3,14,3
-8,-30,-29,21,15,3,-11,-7
-4,-10,127,-13,-6,3,-8,-15
-12,99,47,0,-14,-8,2,-6
7,12,-95,-1,0,3,20,16
-10,-18,-25,-29,-5,-7,-19,-4
-3,7,42,-8,-14,-4,-9,-16
5,-11,19,21,11,6,15,10
4,8,4,-11,-4,1,6,7
11,15,8,59,35,7,-22,-10
3,31,26,-21,-4,1,12,0
-6,-4,42,-9,-5,-6,-6,3
7,4,-37,-7,-5,-3,6,6
-4,30,7,-13,-5,-1,-9,-3
-13,-128,-72,-22,-13,-6,7,-3
3,-37,-33,-18,-9,-5,-7,2
-1,11,21,2,-1,-1,11,1
6,-3,16,22,-1,2,-14,5
-9,2,11,-19,0,3,-25,10
5,112,22,11,8,6,52,-1
-8,-5,40,1,-5,-9,-22,-45
5,8,63,5,-2,-6,-40,-15
4,-14,-128,-14,-4,0,-22,-4
-24,-17,40,-14,0,0,8,4
9,3,36,-5,-4,3,12,13
8,34,25,-23,-11,3,11,9
-1,-2,-14,54,16,-2,0,4
-10,-77,-87,2,-2,-6,19,2
-4,27,29,-11,-4,-4,-28,-3
0,11,22,-16,-10,-3,-7,-5
-9,-31,-8,-17,-4,-7,-1,-18
15,28,41,27,0,5,28,21
9,37,107,19,4,7,40,8
-14,-93,-128,-10,6,-3,-57,-11
-3,28,43,-10,-4,-8,-39,-13
10,7,34,-11,-9,-3,-14,10
0,-42,-89,-28,-9,7,124,7
-19,22,53,7,-10,-12,-57,-42
-3,16,-29,15,17,-2,-46,-19
11,-4,8,-23,4,-1,0,2
13,-12,127,-14,-16,-5,11,14
1,-26,-25,78,2,8,22,20
-11,-40,-37,0,4,0,19,7
0,-37,-128,-12,-2,-1,18,8
8,127,74,9,2,1,-11,6
-9,-39,-68,-17,0,0,-8,-22
2,9,52,-29,-3,1,-11,-10
4,28,2,-11,-15,-7,9,-2
-2,-44,-92,55,3,-3,-5,-4
2,-36,71,24,16,8,-3,11
-7,31,-128,-50,-4,-1,-7,4
-9,-6,-6,-30,-15,-14,-32,-12
-9,-12,10,11,1,0,-14,-12
6,17,102,9,-3,1,37,8
8,44,1,-24,-14,3,26,14
-11,-21,-2,8,-12,-4,25,-4
-14,-41,-41,-11,19,0,-24,-18
-1,36,50,12,-1,-3,-55,-17
13,-65,2,-31,6,3,3,9
6,122,-82,39,11,5,14,8
-9,-27,-84,-34,-15,-5,-21,-9
-4,-4,9,26,-3,-3,11,-3
12,60,57,-20,-1,-2,0,16
2,12,19,-52,-16,0,9,4
-1,-82,-8,39,1,6,47,-3
-8,84,3,5,13,10,26,-2
1,15,-13,15,-1,-5,3,-3
3,-41,91,-27,-7,-4,-30,-12
1,-3,-22,-39,-16,-12,-42,-16
-7,1,77,12,-9,-9,-17,-14
3,-5,-12,-19,-2,8,13,12
10,70,-31,69,6,8,28,25
-1,-30,-12,-23,12,6,13,-2
-1,33,78,-22,-16,-10,-43,-2
-4,-42,-108,25,1,-2,20,0
-5,-30,-100,-30,3,-1,-2,-8
-12,4,-109,10,3,-2,-22,-17
-7,-50,21,-44,-16,-5,-27,-14
8,11,54,32,-6,3,-3,4
11,111,17,-30,5,8,11,21
-13,5,127,63,-5,-2,58,16
-5,-49,97,-6,-10,-8,35,7
-6,-94,-128,-53,18,-1,-26,-14
6,91,6,-5,-13,-7,-84,-19
-4,34,20,2,-4,-6,-18,-8
12,37,-24,10,1,9,12,7
-2,-16,45,-18,-5,8,14,18
-2,85,123,36,5,-4,17,-5
-5,-99,-128,-34,4,-4,-1,-17
5,-29,-23,3,-1,-4,-1,-1
3,15,11,-13,-10,-1,6,4
-9,34,-28,0,-2,-4,-7,-4
-3,-3,122,-7,-7,-4,9,-1
11,-16,-9,-4,1,3,17,14
3,7,-7,32,-4,1,21,42
-1,54,-14,-6,-1,-3,11,-1
-15,-98,28,-1,-1,-6,-82,-52
-21,27,15,-44,-13,6,-45,-50
-11,-50,-24,49,-14,-20,5,2
0,15,-113,5,5,0,38,12
-10,-3,111,-12,-8,-6,-1,10
0,2,39,-15,-7,2,17,9
17,-41,20,-40,-8,1,14,12
10,35,25,23,-1,-5,-3,1
4,35,4,2,16,9,2,7
-4,18,34,42,2,1,9,-2
4,-43,-43,-44,1,1,-2,2
-7,-28,78,26,-15,-6,17,10
-5,2,22,10,1,-2,0,-2
1,-48,-128,-57,-6,1,-17,-2
-1,-87,7,21,-9,-5,8,-7
-6,-13,-42,-22,-2,0,-40,5
-3,10,8,0,-10,-6,-2,-5
-2,17,32,18,10,-1,29,1
-1,11,-128,25,7,4,9,-6
-7,-34,127,9,-2,-2,-48,-15
-6,-13,-104,-24,-10,-7,-39,-12
5,50,-16,-16,-6,-3,46,6
-17,-7,16,-27,-8,3,10,4
6,-25,-43,-11,-10,-6,0,9
2,9,-5,18,3,5,18,19
-3,3,-12,3,17,-1,25,6
2,-1,29,-9,2,1,-21,-10
8,127,15,-30,-10,1,-13,3
-4,-25,16,4,1,-4,4,-5
-10,-17,-67,42,2,-8,-38,-20
-10,10,-88,-11,-5,0,-3,-10
-1,-17,21,-5,-10,-6,2,4
-3,-39,19,-37,-12,2,-8,2
18,49,20,23,5,8,24,17
-6,-74,-8,-16,7,-5,36,-6
-2,-12,-12,6,0,0,-77,-28
6,107,44,-16,-20,-5,-6,3
-4,-49,16,66,12,2,9,7
0,127,-55,-36,13,2,4,3
-17,-31,9,12,-2,1,5,-4
-2,0,2,-18,-2,0,8,7
20,40,14,-59,-18,-1,18,7
13,90,91,65,3,5,13,1
-27,-113,-7,36,20,-5,-9,-5
-4,-28,-128,-10,-10,-9,-4,2
-6,10,98,-17,-12,-4,-4,-8
-8,26,127,-8,-4,-4,-45,-31
5,25,9,-7,-6,-4,6,5
-8,-2,-128,-35,-16,-1,4,4
-6,-48,2,31,14,3,17,-2
-3,44,-69,-16,0,4,11,21
7,60,7,-8,-9,7,55,28
-2,-40,19,27,7,-5,42,-3
21,69,60,-15,-11,-9,-99,-28
-13,-31,9,36,9,-6,-60,-37
-15,-36,7,0,-4,0,3,-15
-4,14,71,12,0,-5,-51,-1
8,21,8,-26,5,-4,-11,13
0,-72,-128,-18,-10,6,89,10
-13,-5,-49,-26,5,3,27,7
13,26,21,19,-6,2,26,17
0,1,54,25,13,5,6,0
-32,-55,-16,-27,-1,-1,-41,-24
6,61,42,12,-1,-4,-19,-6
-13,-102,-48,20,-3,-2,10,11
14,-21,74,-10,-1,3,32,18
-5,79,84,-16,-13,-5,-16,-14
2,-12,-54,21,12,5,-19,-14
-6,-23,-23,58,8,-6,3,-12
1,39,-69,-28,5,2,-5,18
-7,-78,-88,-64,-20,-5,-32,-25
-11,-25,43,25,-14,-9,-26,-29
3,43,2,27,31,10,-7,0
4,-5,7,9,-8,2,24,16
-10,-25,4,-10,-11,-6,22,6
2,71,59,14,5,-1,-6,-3
16,-15,69,9,-11,-4,10,12
-11,1,-128,-44,-12,-3,2,1
2,14,-12,2,-6,5,-6,2
-22,-28,-1,5,-5,-12,-25,-9
-2,-48,8,-43,-12,4,102,18
17,-5,34,47,8,3,8,14
-5,19,3,0,0,-2,-20,-25
-6,-9,-7,10,-5,-4,-80,-45
18,34,84,-73,-2,2,35,6
-6,-9,-7,10,-5,-4,-80,-45
18,34,84,-73,-2,2,35,6
3,-83,-128,104,31,0,-26,3
-6,-8,-9,-25,-5,2,6,12
