Channel_1,Channel_2,Channel_3,Channel_4,Channel_5,Channel_6,Channel_7,Channel_8
7,24,-5,44,3,4,8,3
17,39,15,25,1,1,23,31
19,3,38,-61,-13,8,-2,27
76,19,-56,43,13,11,79,60
-4,53,33,36,25,17,48,45
-110,-41,1,-56,-23,-15,-16,-25
-72,-74,2,-7,-5,-7,6,-35
1,-82,-42,-128,-9,-8,-29,-5
44,-28,-18,15,-22,-16,-26,-17
-19,63,99,102,6,2,0,-9
8,13,-18,104,43,17,28,36
-10,-8,-30,-73,-22,-15,-19,-31
-18,51,-1,-5,-19,1,8,-2
48,-38,-96,-20,12,1,68,61
-40,14,28,-40,-12,-14,-77,-67
22,-10,46,1,-14,-14,-11,-20
-12,-37,-118,-36,-11,-1,-9,-8
25,68,27,-128,-32,-2,20,27
46,44,25,127,32,14,65,30
62,43,109,-32,-42,15,41,47
-39,-33,-107,127,83,7,56,50
-9,-51,-52,-94,3,-18,-27,-14
-128,-7,15,-43,-19,-20,-74,-107
32,87,35,-39,-21,-9,-26,-15
-23,-13,-29,62,17,5,9,9
-25,10,1,7,5,11,29,41
88,32,33,-21,1,15,42,29
-36,27,31,66,9,-18,-29,-40
-128,-95,-28,-18,-30,-41,-128,-119
11,-48,-71,36,19,2,2,3
17,-29,13,55,4,3,-8,-6
62,20,11,-30,3,20,77,86
53,21,-4,73,16,5,73,48
-45,-39,-19,-17,1,0,-63,-75
-77,83,35,-29,-23,-21,-73,-49
26,-15,60,-4,9,5,22,49
-125,-102,-82,-29,-2,-28,-128,-108
-3,61,25,1,-1,-7,-52,-42
7,-23,22,-9,5,13,72,33
58,82,100,-38,-9,19,67,61
47,-10,-91,36,23,9,35,53
19,-25,-87,-21,-6,-1,24,22
12,-8,8,-6,-2,-5,-35,20
0,24,47,-98,-12,14,51,20
48,15,71,82,-3,2,57,15
-100,-77,-109,-24,10,-31,-128,-108
-39,60,31,-7,-3,5,32,31
13,30,24,-12,-25,-10,-55,2
-27,-50,-103,85,38,-3,38,-22
-8,0,-17,23,5,5,35,-19
20,24,-17,-1,-1,8,22,13
9,12,43,-128,-35,4,25,20
51,34,49,-44,14,17,19,37
25,-32,-72,64,22,3,54,26
18,-38,-69,2,-11,-8,-90,-17
-63,1,15,3,-9,-9,-6,-10
-103,-45,23,-29,-18,-14,-88,-76
-30,-71,-10,-4,-9,-10,-8,-37
11,55,10,-7,-2,8,18,14
48,36,-27,-20,-5,6,-9,5
20,-29,-2,-41,-6,-1,63,11
60,34,45,82,7,13,17,25
38,52,-30,3,22,26,64,57
-37,-120,-25,3,-18,-26,-90,-13
-47,-4,6,-49,-18,-13,33,-41
-39,-2,10,39,7,2,-53,-38
32,17,4,-39,0,5,22,20
46,52,30,-25,-21,-7,15,41
10,-82,-70,70,35,19,125,23
11,19,-15,-45,-16,-6,13,24
-39,-31,-35,23,4,-6,-96,-35
-36,-5,-15,-26,-4,-8,-6,-39
-24,10,8,-19,-10,-9,-80,-36
14,-8,35,12,-7,-4,-1,16
37,75,49,-106,-15,10,43,44
-3,-61,-36,127,31,12,34,11
-6,-45,-35,-23,-8,-10,-64,-31
39,34,22,11,0,-3,-12,16
-53,36,19,-52,-16,0,29,19
-1,-2,-33,26,-9,-11,-24,-19
-49,-63,-36,-31,-13,-24,-60,-52
-81,-7,4,-5,0,5,29,9
23,-16,10,-21,-7,3,42,-3
30,76,27,11,-6,-3,-44,25
37,-76,-20,-10,0,10,51,17
-103,28,-7,-34,-7,-12,-60,-104
-50,38,72,-91,-30,-5,-6,1
49,-1,19,127,44,-3,46,13
-43,-6,-40,-31,6,3,-44,-17
-17,44,36,-10,-20,-6,-16,35
40,-98,-22,-41,0,-11,-15,-7
78,43,57,-41,-18,-8,-23,67
86,-1,-55,95,42,27,125,81
-52,40,-1,-37,-7,-6,-13,-78
-128,-75,-1,-30,-21,-15,-128,-128
73,25,26,-26,-9,-8,-31,-11
52,21,74,-69,-14,-2,26,30
18,-3,-4,22,-23,-2,26,30
30,-6,-64,112,57,24,62,56
35,11,-47,-70,8,6,45,28
-61,-56,-22,-14,5,9,-77,-44
-71,-4,30,-51,-14,-10,-38,-15
32,74,13,28,-19,-20,-21,10
1,21,-23,-14,-9,0,22,1
-38,-128,-46,2,-6,-7,-3,-10
-5,30,37,-95,-21,2,25,31
42,-54,-27,127,24,7,15,16
80,53,-16,13,8,1,-86,-38
-52,32,35,13,-4,-8,-28,-49
-128,-27,-3,-34,-5,-4,25,-9
10,-36,-52,-43,-13,2,-6,10
27,-4,82,-1,-7,-2,65,17
11,-13,-63,31,22,6,-2,4
21,34,-32,-6,5,3,-9,8
13,0,26,9,4,11,40,41
-55,-4,2,-4,-11,-22,50,-31
38,11,43,-103,-29,-19,-128,-61
47,8,-18,93,36,18,127,46
22,-61,-29,35,7,8,48,32
-3,74,13,-13,-4,-1,-71,0
34,34,52,-119,-40,-16,-26,3
-28,-20,19,116,14,-20,-62,-50
-49,27,-52,-45,11,3,13,-20
-22,24,-80,-1,2,6,38,27
53,54,16,-54,-9,6,-5,33
-17,33,17,48,11,6,9,32
-3,26,54,-110,-23,9,75,16
-5,-12,8,127,2,-13,13,-13
-26,24,63,-51,-2,-16,-128,-70
14,-128,-67,-28,-15,-18,-60,-36
-18,-46,-28,-40,-13,0,55,13
-15,0,9,41,6,15,35,12
18,-43,2,-22,-7,-4,-112,28
40,70,49,5,-18,2,93,30
4,-29,50,38,-4,-14,30,-40
-68,50,-12,-93,-9,2,-59,-41
-44,-42,-45,127,52,2,-5,-6
48,3,8,-16,1,14,20,37
70,27,30,-11,1,5,-19,24
12,90,-7,-23,-5,-3,56,14
-66,-103,15,-19,-16,-8,-34,-7
-11,5,13,-42,-9,2,6,-4
-45,50,-19,60,7,5,6,-38
67,30,-10,-12,1,-10,-49,-26
20,-77,21,-6,-10,-16,-52,-4
1,-4,21,-34,-2,16,51,10
-20,4,16,36,5,10,3,-1
-30,-2,-53,-44,4,-2,-14,-20
17,-15,9,20,1,-6,-23,1
85,27,-49,-10,-19,-13,-21,24
-52,-24,-10,12,10,8,98,10
-17,32,-5,12,-1,6,-1,13
13,-29,3,-27,7,14,75,33
59,30,102,-79,-10,17,79,99
-79,-62,-50,127,12,-9,30,-37
-48,-115,-40,-6,-10,-33,-128,-128
-15,55,15,-3,8,-9,-11,-27
32,14,55,-92,-29,5,81,40
15,51,5,127,18,-2,32,26
-4,-50,-66,4,12,4,18,21
18,78,-16,-91,-11,6,-5,10
43,27,24,-42,-9,5,10,12
-13,26,-28,15,9,5,-4,4
10,50,67,-98,-16,3,18,8
63,94,-6,127,29,8,16,23
-121,-42,-40,-3,0,-9,-25,-12
-48,72,20,-25,-21,-10,-69,-30
-10,-39,4,-20,1,5,12,-21
44,39,23,-5,8,23,64,52
11,18,4,-7,-10,-21,-128,-36
5,-28,-7,-10,-4,-10,-86,-65
10,9,2,6,-5,-5,79,-5
12,-32,-3,9,7,6,-5,11
-66,-5,3,-25,-15,7,18,-9
-12,6,56,-43,2,16,37,38
77,12,-93,55,47,35,95,100
-5,-1,-9,22,-4,-13,-42,-24
-128,22,24,-32,-23,-38,-128,-124
61,17,-25,-23,0,15,-12,23
58,-22,49,-93,-18,22,127,74
-51,2,-56,127,30,-17,30,-30
-23,13,-11,23,-2,-13,-128,-122
39,12,10,-51,0,5,59,67
98,11,42,-65,-28,0,28,69
-56,44,-103,57,33,7,74,-10
-93,-69,-17,-32,-8,-13,-128,-79
-15,12,-4,2,-12,-12,-6,-13
26,53,8,-29,-13,1,10,17
36,35,59,-40,-12,9,8,15
42,53,22,92,19,7,32,44
14,-12,-21,-39,3,8,27,19
-28,-119,-18,27,2,-11,-29,-29
-48,-42,33,-7,-6,-3,-56,-13
-48,101,-97,-12,-3,-3,12,-14
-51,-30,-4,-1,4,1,13,-18
-2,11,21,-19,0,-9,-106,-28
27,0,24,9,-4,-3,-70,10
79,33,31,-3,-1,5,127,34
19,-32,4,-15,-7,-2,0,13
-92,9,17,-16,-8,-6,-26,3
-17,8,-20,-10,-10,-1,-8,-39
14,14,9,-11,0,9,-3,7
-16,34,14,38,3,-9,-52,21
6,-93,-38,45,15,-7,11,-8
-64,12,-4,-13,-4,-4,-14,-30
-14,37,-7,-10,1,7,-59,-17
85,26,43,-65,-21,4,116,89
93,13,30,43,11,15,59,70
-37,12,-62,29,1,-22,-30,-31
-119,6,-47,-21,-28,-52,-128,-128
-3,-43,4,12,7,-6,11,4
53,27,16,-10,1,18,86,78
1,46,36,-11,-8,3,57,50
36,-2,-25,-68,-9,0,17,-2
32,-16,26,84,33,5,-17,-7
-47,-1,23,14,3,7,21,3
-24,-39,3,-55,-21,2,-1,-10
19,6,-72,91,39,6,-3,-4
32,69,-1,-46,-11,-11,-31,-13
-58,-61,-2,3,-18,-12,-29,-11
-20,-19,14,-30,-16,0,9,6
-1,-7,18,13,13,8,23,7
30,26,-35,37,14,5,-8,11
52,16,17,-15,-10,-3,-21,-1
12,16,25,-42,-12,-12,-17,-19
-26,-79,-13,15,-4,-1,-26,-27
-89,98,0,12,-2,-5,5,-19
-38,-97,-12,-14,4,-2,-61,-43
95,34,54,-16,-11,3,-20,26
16,105,-31,13,17,7,52,30
-109,-98,-56,14,-1,-16,-35,-48
-9,50,49,-25,-6,-7,-46,-36
37,-44,13,1,10,15,10,39
27,-23,6,-3,-1,8,124,46
48,62,-1,4,3,4,-26,-8
-20,-13,-2,3,-1,-6,-90,-59
-42,-23,7,-66,-19,-7,17,-1
33,10,46,17,-12,-11,42,62
11,-6,-86,87,28,5,16,-11
-104,6,-31,-19,-14,-17,-128,-87
-49,-32,8,-58,-19,-10,9,-16
25,10,36,2,-6,8,28,17
41,6,-21,15,22,19,33,30
16,18,-11,17,3,5,31,36
9,33,77,-106,-30,-2,14,14
14,-23,-84,102,31,2,32,13
14,-14,-20,3,-5,-15,-12,-27
-13,47,10,-10,-6,0,-52,-32
7,23,45,-54,-25,-5,11,-2
0,-128,-7,31,2,1,52,21
-48,51,29,-21,-26,-2,41,39
11,29,-48,104,45,-4,-48,-26
-27,-19,-1,-13,3,-1,-8,-27
111,127,24,-56,-10,8,56,56
6,7,51,23,-8,16,44,50
-128,-100,-34,-9,-2,-32,-128,-112
-7,-40,-11,-14,-12,-21,-91,-121
57,40,12,-11,-7,-6,-33,-17
1,13,18,7,-2,1,28,20
21,-35,52,-10,0,12,30,52
46,47,-24,21,6,19,69,72
-35,37,-44,-69,-9,3,116,26
-53,1,65,61,-18,-26,-109,-63
58,-20,-89,109,50,11,-16,29
-26,3,-3,-17,-6,0,2,7
-42,-18,8,-26,-15,-10,-3,-15
55,65,43,-73,-15,6,-21,38
60,33,23,19,-4,-8,-8,28
1,79,27,72,0,-11,41,-53
-98,-61,-31,-9,-1,-12,-128,-95
-4,-119,-61,-40,-6,2,-10,6
-2,79,7,-21,-7,4,41,40
9,20,60,-61,-21,3,40,40
26,-13,-17,-16,-9,7,72,29
29,4,-44,76,37,-4,12,5
-90,0,27,5,-4,-18,-93,-53
-25,-21,-53,-19,-19,-24,-56,-39
1,-11,12,-23,-9,0,-12,-3
17,38,62,-68,-21,5,41,24
83,2,-5,127,36,14,16,48
-59,-13,17,-14,-2,7,14,-9
-86,6,-6,-23,-3,5,7,15
-41,-25,41,-84,-19,-3,48,-22
55,73,-72,127,31,-13,-24,-27
61,-128,-31,-25,-5,-11,-17,17
-76,54,-1,11,-7,-8,-4,-29
-92,8,20,-59,-34,-23,-65,-31
54,23,51,4,-20,-18,-12,-1
41,17,-78,73,29,26,30,27
-24,14,-52,-48,16,14,31,18
-30,26,23,-8,-2,4,-29,-11
5,-45,12,-5,-9,-5,-38,-1
12,9,6,-7,-4,1,74,35
2,-19,37,-116,-35,-5,6,15
-50,-18,-9,127,32,13,12,15
7,-59,-75,-6,7,-14,-54,-54
42,-4,14,-22,-18,-31,-28,-16
6,69,57,-67,-17,3,-25,11
1,-67,-26,93,19,9,38,55
-100,-63,-24,-16,-2,5,72,-24
8,36,31,-39,-18,-9,-112,-90
26,15,49,-26,-3,6,-29,-8
3,57,-128,37,32,21,64,73
-32,27,7,-6,-3,4,23,41
-20,-56,30,-97,-25,-16,-62,-73
3,-49,77,40,-10,-5,-9,6
-3,-32,-95,127,27,-3,-16,-18
40,-17,36,100,30,6,-35,-26
-56,-15,-22,-36,-3,5,14,-15
-22,-34,21,-24,-6,16,52,36
-52,-21,-3,-38,-24,-11,89,3
0,-24,-4,-3,-11,-24,-33,-7
-26,9,5,-66,-15,1,-10,-39
61,-20,36,14,4,12,16,21
14,-39,-32,12,29,14,57,62
5,-24,-24,21,0,6,40,43
-47,82,23,13,-22,-30,-95,-75
-24,13,-72,-11,1,-14,-84,-45
33,127,26,-27,7,10,12,12
8,-8,-5,49,8,3,3,-4
31,-19,-18,-21,-9,-7,-36,-6
2,15,29,-19,-13,4,53,23
-67,-23,4,50,9,-1,-48,-3
-65,1,-11,-1,-4,-10,118,-51
-10,-5,11,-4,2,-1,-27,-3
63,106,44,-9,-3,9,4,36
47,-26,-37,-22,-6,1,12,43
77,49,17,56,4,2,59,69
25,68,-10,-26,-10,-5,14,21
-128,-128,11,-19,-11,-14,-23,-74
75,52,-30,-18,-16,-12,-128,-92
65,29,-32,4,17,-7,-5,25
-92,-45,31,76,12,1,-5,8
-60,-40,-54,-52,-4,-3,22,-15
4,-7,-41,63,11,12,78,16
38,19,15,-24,-2,0,-73,-14
38,3,18,-26,-15,-4,-3,3
20,14,95,-67,-21,3,11,25
-19,-10,-47,70,14,2,-5,19
37,-8,-29,17,5,2,-2,-11
-2,-4,3,-13,-5,-6,-38,-8
-30,18,2,-37,-20,-20,36,-9
-33,51,-1,22,16,9,-50,-16
-20,-128,19,3,-4,9,19,12
26,120,-15,-1,-4,-10,19,11
21,-7,8,4,6,13,40,31
-13,83,31,-44,-3,15,70,12
-7,-3,19,-26,-4,-3,-25,-44
-81,40,20,127,25,-19,-128,-80
-7,-19,0,-63,3,-3,-13,12
-90,-15,-59,-41,-12,-4,69,-10
20,4,16,-14,-1,8,8,5
-6,16,12,-9,-8,0,13,16
3,-40,50,22,-13,-6,-54,-7
-24,-21,-58,-33,-8,-2,10,-17
50,-7,61,-83,-3,3,41,44
24,-5,-127,127,63,12,-53,5
-20,-37,12,-37,6,-6,-39,-50
55,90,59,-101,-38,-33,-119,-52
-53,-128,-21,71,-1,-2,27,-11
1,30,29,57,8,14,48,28
-10,-62,-87,-41,3,3,18,9
29,14,-16,-47,-10,7,40,45
-1,11,44,-90,-31,11,47,30
-46,-49,-11,127,26,5,12,-14
-118,-10,20,1,7,-7,-4,-45
-29,102,-3,-11,-7,-16,-113,-55
49,6,6,-22,-8,-2,28,3
24,2,3,-16,-15,-11,5,5
59,4,7,-8,-2,5,-16,0
38,34,5,-42,-6,10,7,49
64,19,32,63,10,1,83,38
15,-64,-12,21,4,0,-29,-52
-128,-35,-38,-23,-7,-19,-100,-62
-79,2,0,-13,-9,-8,-46,-27
26,10,16,8,-1,4,30,8
41,15,10,7,1,17,57,43
27,39,78,-128,-39,-12,-46,34
21,-14,-70,127,67,14,89,2
-35,47,14,-4,-1,0,-73,-59
-25,-42,-39,-9,-7,-12,-22,-23
-8,40,9,-15,4,5,23,8
23,-26,13,-15,1,9,17,21
5,38,42,-43,-21,-5,27,19
39,15,36,27,-2,-2,33,22
61,29,-12,-18,5,1,-6,27
-23,10,-19,105,18,-6,-16,-4
-128,42,3,-61,-28,-17,-47,-67
-68,-93,-22,57,8,-8,-36,-50
28,-65,-40,-11,-2,5,5,16
92,35,29,-34,0,5,26,26
-42,97,26,7,0,-3,50,-6
33,-45,87,-68,-28,-6,-22,28
-18,-55,-40,119,35,-11,32,28
-60,49,-27,-8,-3,-5,-43,-55
-30,-48,7,-14,-11,-8,-27,-22
61,14,18,-16,-12,7,93,70
30,-5,8,9,9,4,62,11
51,10,6,-6,-6,-4,-128,-104
-61,2,3,-5,3,1,0,-21
42,106,26,-4,0,-2,-16,38
39,-97,7,-1,-1,12,97,37
42,115,-5,-30,-6,5,81,32
-36,-128,-42,95,20,-2,31,23
-81,28,6,-5,-22,-13,-21,-23
-10,48,-43,-55,14,4,-53,-50
-2,-29,43,115,12,17,-5,7
68,-36,-76,-33,9,-6,10,16
10,20,18,-30,-6,-6,-93,-33
24,55,40,-11,3,4,0,10
-1,-9,-11,-17,-6,3,-18,-2
-7,1,38,-68,-22,2,27,17
34,-29,44,63,-2,1,25,25
-41,38,-70,9,16,-1,34,18
-54,-42,17,-39,-7,-2,2,-40
16,47,-52,32,-7,-17,-49,-28
68,-21,51,-41,-8,-4,8,16
-82,10,35,-72,-34,-5,16,16
-107,-23,-2,80,16,0,-12,12
70,-128,-5,26,13,19,95,33
35,19,-7,0,-7,-28,-123,-94
37,127,5,-22,-20,-29,-110,-70
24,-40,0,-41,-13,1,-26,17
35,15,19,17,1,17,78,51
-71,-2,-18,33,10,6,93,18
-68,-119,-5,-23,-9,-7,-40,-23
25,119,55,-25,-8,-3,-59,-33
47,104,-63,36,15,-11,-41,9
-48,-96,-11,-7,-6,-5,78,8
-71,-16,23,-61,-10,8,-16,-6
95,-3,24,0,-6,5,25,49
-88,-14,-12,-28,-25,-28,-7,-5
-54,54,-23,-54,11,6,38,-32
32,-128,18,13,14,-5,-25,-6
1,-7,-105,-3,5,-4,-39,-48
34,20,28,-8,-4,4,-49,-9
20,117,25,-47,-11,1,13,8
45,5,-7,-10,4,15,54,38
26,-15,-5,52,-6,-7,31,18
-33,23,62,-53,-2,5,-1,-10
-20,4,3,42,-4,-14,-22,-5
-102,-40,10,7,-8,-3,0,-3
95,26,16,-20,-13,-3,-8,-5
50,4,20,0,0,5,12,20
-44,-16,-26,34,11,6,24,12
-59,30,3,-7,-6,-4,-7,-36
-43,49,55,-61,-23,-18,-87,-67
6,-4,-11,82,4,-10,-9,-6
37,62,-74,-6,16,13,24,22
32,-13,21,-72,-9,15,39,23
-23,2,-27,59,22,12,32,13
51,-1,-43,9,9,3,13,37
69,-28,-11,-21,-12,-12,-2,31
21,12,24,-27,-5,6,-4,15
-20,10,28,-14,-8,-4,51,-28
-44,-33,3,-26,-11,-6,-128,-69
-23,31,47,-17,-10,-13,-27,-3
-18,6,3,13,-7,-2,85,-26
71,2,-5,20,12,3,22,40
82,66,47,16,29,34,70,86
-72,-70,-79,-3,-2,-3,-43,8
-13,-8,20,-40,-15,-16,-36,-83
16,7,16,-26,-17,-7,-117,-76
33,62,-18,23,-3,-12,14,12
-35,-18,6,13,10,-1,2,21
-24,-55,-21,-49,-6,6,1,3
6,0,7,21,9,8,55,36
-66,16,71,-63,-22,-6,54,5
10,2,-5,102,15,2,-72,-14
10,49,-46,-31,2,-6,6,3
52,-11,13,-10,-1,8,8,-15
-5,44,75,-60,-15,-3,-10,0
-37,-44,-88,96,29,-2,34,9
-17,-47,-21,-27,-6,-1,-42,-9
39,70,35,-65,-17,-4,-4,12
27,2,29,40,11,5,26,18
63,-16,-49,21,7,-3,-30,-6
-128,-115,-26,-33,-15,-12,-38,-65
-57,55,21,-34,-14,-7,33,-24
27,30,42,12,-11,-6,11,-12
59,-34,13,-4,15,9,-27,-10
44,28,-15,20,20,20,79,46
-29,63,-20,18,7,5,10,19
-20,-127,-5,-14,-9,-7,-18,3
-11,36,28,-41,-33,-46,-85,-70
0,-7,-11,-24,-16,-18,-39,-4
20,21,-16,16,20,19,30,44
20,-3,21,56,25,17,-19,-12
31,0,-51,2,10,3,46,18
-108,-41,1,-17,1,7,-105,-82
-69,15,2,-41,-28,-16,8,-24
12,21,44,8,-23,-9,-8,-11
20,-64,-102,0,18,4,17,23
49,43,26,-16,0,3,17,25
-1,-45,-10,-44,-2,13,26,26
-14,22,13,69,6,-2,16,3
23,-7,-10,-47,-18,-5,-26,-17
7,13,46,83,18,1,-25,-1
-12,30,-37,22,16,1,10,12
21,-3,21,-54,-13,0,14,12
38,-30,12,34,1,5,27,11
58,-3,-80,-17,-2,-10,29,-14
6,5,5,25,7,2,-80,-39
-80,-11,-38,-74,-5,2,-15,-20
-106,-10,37,39,2,10,37,26
74,13,-15,64,36,21,92,29
22,46,15,-44,-9,-4,19,30
-59,-1,-28,8,-24,-29,-58,-39
25,-15,18,-16,1,0,-28,-33
-57,-20,-12,16,4,3,-45,-24
-18,77,-17,-9,-13,-9,15,-17
89,-36,-5,-20,-12,-2,21,36
16,23,10,-15,-12,-1,21,15
-52,26,4,33,4,2,-68,-30
-80,-30,31,-3,-5,-4,-35,-17
-1,-102,-33,-14,-13,-8,49,4
32,89,-25,26,15,3,76,17
17,18,20,7,4,8,41,38
26,4,8,53,8,9,25,27
-4,26,-58,-48,-3,-12,-65,-64
-73,-34,21,-10,-19,-22,-95,-61
27,-18,6,-102,-21,2,7,15
17,34,-7,127,43,14,20,20
-4,-28,41,-25,-4,4,34,33
-48,87,-16,-18,-12,-4,36,-9
73,-33,1,-66,-26,-7,50,40
23,12,43,-23,-15,-6,13,4
-99,10,-13,94,23,6,-45,-46
-58,-13,-42,-37,-10,-13,-128,-100
71,8,17,3,-1,1,4,11
47,70,18,-19,-1,-2,3,3
-13,-121,1,-19,-8,-5,45,23
-5,17,21,3,-5,4,64,45
-19,-30,-11,10,10,14,33,23
-58,-18,-1,1,1,5,7,-23
50,12,12,2,2,0,-52,1
23,73,13,-62,-32,-31,-30,16
-63,9,-46,31,19,5,-7,-22
-10,41,8,-1,7,2,1,-19
-15,-74,7,-9,-2,-1,-29,-11
-5,58,-7,42,-1,-6,-20,-16
25,-1,26,-22,-21,-15,-102,-11
31,25,2,19,-4,1,89,21
-72,20,9,-86,-5,7,54,9
-1,-31,-76,127,47,2,-73,-28
64,-1,-32,6,1,4,33,31
-50,56,-32,-34,-12,-10,11,10
-5,-122,23,-55,-18,-6,-15,9
2,32,3,-13,6,2,-12,-13
-26,8,-11,-22,-12,-6,5,0
62,42,28,24,8,9,18,15
12,5,33,18,-4,1,-3,20
7,-15,-58,-31,-1,-4,-7,21
1,-30,0,-29,-11,-13,-10,-17
-68,13,19,-11,-7,-4,14,-29
5,-11,-17,1,-3,0,-27,-16
-23,-76,-36,-43,-4,6,-1,8
30,-8,1,-39,-7,-7,18,3
34,-19,10,36,-2,-13,-88,-32
-103,-26,-9,-6,-5,-7,-31,-1
62,1,40,-51,-5,9,41,16
-45,-1,-77,83,20,4,6,-3
-70,-5,7,-22,-22,-12,3,-14
102,22,8,-36,-6,-4,16,25
72,6,26,9,8,-1,-5,4
-37,31,-18,11,5,-6,-60,7
-76,-84,5,-36,-9,0,25,8
-44,33,13,-12,-18,8,79,25
-4,-69,-56,-26,-4,-22,-42,-70
21,3,-17,-13,-10,-13,-101,-88
41,37,10,-14,-11,-11,-23,-14
30,21,81,-128,-31,10,56,50
50,11,-26,127,34,10,54,47
58,-22,-98,-37,16,4,16,32
-74,-11,9,-45,-18,-4,-32,-9
30,33,15,-40,-19,-2,20,17
-128,-85,-2,43,3,2,10,-1
-83,-12,-6,-50,-10,-8,-9,-35
43,50,8,-1,-6,0,-14,-1
48,-85,19,-128,-41,-5,31,49
59,-78,-93,127,56,6,65,8
-41,55,-44,-60,-9,-21,-92,-63
9,-34,32,-20,-1,-12,-97,-62
120,127,53,-7,2,21,38,55
40,-52,13,-14,-2,9,68,57
-109,-85,-59,16,-2,-5,8,-7
-75,-9,5,-1,-15,-22,-98,-84
37,70,22,-34,-11,-7,30,2
107,-26,-4,-25,-16,6,62,54
46,10,-7,119,66,41,108,69
-17,27,11,-3,3,1,-9,-8
-50,-30,-22,-24,-40,-46,-81,-57
15,-93,-14,-27,-3,-18,-91,-35
14,24,32,7,-3,6,3,-16
-12,32,12,-5,-2,14,103,46
67,33,-39,-23,6,12,79,72
14,-84,4,32,-17,-20,-25,-9
-128,46,-106,37,16,-10,-90,-60
-27,-128,-8,-4,-4,-9,-21,-49
-13,2,26,-52,-21,2,23,8
56,72,50,-3,4,10,29,29
-37,-47,-82,-19,1,3,3,12
0,-26,46,-18,-12,-9,8,-13
17,88,-55,54,17,5,14,10
30,11,-31,1,0,4,22,23
18,17,26,-34,-15,-9,7,12
-6,14,19,-39,-12,0,9,16
37,-73,12,82,8,0,-52,-34
-3,15,-32,-8,9,-7,-52,-29
-22,-86,-11,-37,-25,-21,-41,-37
-6,56,28,16,3,12,16,3
-37,-71,8,-2,15,16,44,44
-11,82,-2,3,1,4,18,8
36,85,24,-54,-17,-9,-22,-24
13,1,18,75,13,-7,-10,5
65,24,10,-55,-11,-4,27,5
-20,25,-22,57,10,3,-10,0
-50,-71,-25,0,-1,-4,-14,-8
45,6,-7,-20,-1,4,-14,-9
4,-57,24,-89,-26,-12,3,-11
-10,10,33,127,42,9,39,-5
21,35,-46,-52,-4,-3,-2,6
-15,-40,4,-27,-7,7,16,5
51,20,12,11,-5,7,51,38
-17,-3,-6,-17,3,-13,2,-10
-48,-26,4,-5,1,1,-119,-47
-13,32,23,14,2,8,14,11
-6,-13,11,6,0,-3,11,12
73,74,14,-50,-26,-19,6,16
-4,-87,10,-51,2,11,67,16
-4,54,12,127,54,24,24,21
-61,-89,-104,-26,3,-18,-36,-35
40,-26,-4,-42,-19,-19,-52,-15
-59,-40,23,-28,-9,2,-6,-32
-8,42,19,-11,-3,4,-6,-2
49,70,37,-92,-23,11,12,34
25,-108,21,80,18,9,41,11
-30,32,-43,18,14,-5,48,-2
18,11,-10,-11,5,-7,-54,2
49,73,26,-17,-6,5,67,21
-43,-78,12,-20,-7,-3,-128,-50
-86,7,-77,11,8,-5,-78,-45
-48,26,6,-12,-11,-4,23,-18
60,85,69,-26,-17,6,4,45
96,-90,-56,76,22,1,95,33
14,-37,-50,-42,2,2,61,13
-103,51,23,-32,-19,-21,-65,-60
5,28,16,1,-2,-6,-36,-10
30,-16,7,21,0,3,-6,10
20,-44,-7,-14,-6,-4,-10,-11
9,25,11,3,6,5,-1,7
-43,-119,9,5,3,2,12,-12
-24,21,-19,-15,-1,6,8,-3
-114,-91,-15,-18,-3,5,24,1
48,51,21,-18,-11,-7,-5,20
24,-23,7,39,-7,-11,16,1
-22,13,-103,32,29,5,-15,-16
-57,-20,9,-28,-10,-3,-73,-64
19,26,25,-54,-26,-7,-9,3
42,21,121,-91,-22,-1,24,20
1,-19,-70,127,26,4,40,37
2,85,-74,-24,35,3,17,-3
10,-8,41,-40,-2,-3,-90,-32
-20,-41,-53,-33,-18,-8,2,3
-19,117,18,-18,-9,1,6,-10
-3,24,47,-53,-19,-11,-64,-12
-35,-128,-14,65,4,5,64,5
36,94,-8,4,1,4,37,25
-4,20,8,0,-1,-4,-2,-12
-6,31,7,-3,0,1,-11,18
11,-41,-5,-2,-1,-2,-9,1
32,-6,-12,-5,-8,-13,-2,3
-95,1,-10,-6,-10,-10,-29,-53
7,-11,3,8,-2,-11,18,-7
54,2,-4,-23,-1,9,25,51
67,-40,-7,18,15,24,57,54
32,-7,13,-3,-8,-18,-107,-41
-89,-80,65,-5,-34,-20,-8,-35
-66,-41,-128,119,50,2,-10,-36
-24,-40,10,-25,-14,3,-90,-66
-21,21,13,-39,-23,-14,-24,-10
15,-39,0,49,13,6,27,20
52,30,8,-20,6,15,41,44
48,34,50,-45,-7,13,52,63
45,-11,1,86,18,3,43,11
8,38,-22,-67,-17,2,-5,-19
-122,-72,54,35,-8,-13,-64,-64
-4,26,-89,-48,8,1,2,3
8,49,39,-41,-12,2,9,17
19,37,-37,102,25,-6,11,2
-2,9,38,-32,-3,-4,-43,-13
19,13,-38,9,-5,2,-5,15
37,27,24,32,11,7,5,19
-37,-13,-9,-11,-11,-2,4,-12
-49,-30,8,-13,-8,-3,-20,-30
-20,-53,-6,-8,-5,-3,4,-11
21,15,1,-4,-4,-4,54,7
19,18,3,-43,-6,9,66,55
91,57,101,-93,-28,18,62,57
25,-20,-73,127,40,-4,-66,-42
-12,4,-105,-86,2,-22,-128,-74
-128,-18,18,-26,-18,-16,-20,-67
-35,-8,6,-30,-15,-6,25,4
26,20,14,-15,-16,-2,43,34
41,38,15,-6,-5,3,41,32
27,15,5,-8,-4,2,36,16
70,22,28,-101,-26,-10,3,23
54,-8,16,98,34,27,63,68
-97,-7,-19,65,28,6,47,17
-70,62,-21,-8,0,-4,-71,-96
-15,-128,-15,-53,-28,-29,-96,-63
13,51,2,-14,-10,0,11,-1
36,-16,-2,-45,-24,1,54,38
26,48,13,51,16,2,33,48
-57,32,-48,-42,4,-4,-16,-6
-61,-8,18,-11,-12,-9,-82,-63
-8,115,9,-34,-8,-2,4,-12
6,-117,25,19,-9,-6,0,3
16,-29,21,-14,3,-3,12,10
43,40,-55,41,8,6,-5,12
21,-32,-5,0,6,12,21,23
-85,-21,-2,6,5,-3,11,-23
-24,29,14,-2,-4,-9,-7,-11
-6,55,56,-74,-23,-5,8,-10
66,-52,-28,57,7,4,32,27
10,17,-30,9,3,3,4,7
-47,23,41,-22,-19,-10,-42,-25
-10,-108,-38,23,4,-13,43,6
6,111,8,-15,-6,-9,-69,-56
-11,-15,-4,-20,-14,-21,-69,-38
18,11,26,-33,-20,-4,18,3
-11,-30,-12,71,18,4,38,25
36,-4,-13,-26,-3,11,34,38
72,2,10,-8,0,5,-13,23
-77,-27,18,21,3,8,68,39
-46,15,-32,21,9,12,86,15
-57,-21,-9,-10,-14,-24,-67,-75
-32,38,15,-13,-11,-24,-128,-85
20,-67,1,-39,-15,-13,-17,-15
25,60,21,6,4,18,60,36
49,63,20,-26,-15,3,42,52
39,28,-24,-5,11,-1,45,26
-38,-19,-77,52,10,-3,-39,-25
-49,-18,-16,-51,-21,-11,-58,-37
18,11,30,88,18,8,9,19
41,76,21,-34,4,5,-14,16
-14,1,-16,18,-1,0,30,15
6,15,55,-56,-23,5,25,19
-45,-77,-17,39,14,5,35,-17
-14,55,14,-13,4,4,1,-23
-90,66,-3,16,0,-17,-80,-67
30,-52,-9,-39,-14,-13,-71,-1
24,-8,-26,-19,-4,-5,-1,0
57,25,95,-56,-26,5,3,31
73,38,-48,127,28,17,65,58
-128,-128,-109,54,31,-18,46,-4
-10,0,10,-33,-15,-14,-122,-59
80,47,23,-23,-9,-6,9,8
71,-21,19,-24,-7,11,75,73
-128,-39,15,-10,-2,11,47,23
-99,-56,-2,-16,-21,-25,-47,-112
-1,10,2,-10,-8,-13,-119,-49
72,65,4,2,8,14,56,36
39,7,2,5,4,0,44,27
24,21,3,-2,2,-10,-44,-6
-23,15,6,12,-8,-3,37,10
2,-27,-21,9,9,5,23,14
44,14,-5,-5,6,14,19,14
-8,26,-4,-12,-6,0,-59,-25
3,-67,38,-30,-21,-3,36,21
70,18,-11,62,12,12,57,60
-125,-2,-13,12,-2,-12,7,-29
-93,22,-43,45,37,6,-74,-91
-61,-91,-43,-50,-16,-17,-54,-56
35,58,91,-128,-63,-21,-5,-7
41,80,38,127,80,28,44,33
16,-128,-94,-89,-5,-3,4,17
20,26,20,-44,-9,-6,20,31
3,8,40,-72,-24,-5,6,-2
24,-5,32,36,-3,5,4,14
35,78,-27,-61,8,3,-9,4
37,9,7,5,0,0,-11,-7
-88,-71,-67,58,4,-6,10,-6
6,-11,1,0,-3,4,31,20
12,64,19,-6,-5,-1,-17,-18
-12,36,-1,-5,-5,-4,-61,-24
-4,-56,-2,-11,-14,-17,17,1
-25,28,31,-13,-9,2,15,9
-11,-82,-21,53,20,2,21,-7
-16,124,14,3,-3,-12,-108,-35
8,58,5,-9,-5,0,14,9
50,-16,18,-15,-6,6,50,35
79,50,13,32,2,10,26,40
-44,-62,-41,5,6,-6,-15,3
-101,33,11,5,-9,-13,-52,-82
-25,7,24,-12,-19,-11,-65,-52
-13,-24,26,-1,14,1,30,25
16,65,-38,33,14,-3,9,9
50,-42,-36,17,4,0,7,4
33,59,5,-54,-25,-11,6,10
68,-48,81,-80,-31,13,33,40
7,-38,-114,127,61,20,45,25
-117,99,12,-37,6,9,-15,-42
-76,-56,36,-57,-31,-19,-54,-47
-18,-21,5,42,12,-5,-20,-11
31,46,-20,-32,-7,5,17,14
67,53,20,9,2,7,30,26
-12,7,-28,22,3,-2,-38,11
-20,-20,18,-21,-6,8,72,29
-128,6,3,22,-7,-12,-10,-52
11,-6,-32,-5,-1,0,-47,3
-21,3,-6,1,-1,-9,18,9
46,-28,7,-22,-3,-7,-128,-85
-5,44,13,-22,-15,-12,-7,-18
-15,-7,29,8,-7,-10,-8,-3
-18,-46,-36,50,18,6,16,23
50,10,-10,26,7,9,42,40
25,30,5,-9,6,17,44,26
2,-73,-9,-19,-11,-10,-53,-44
-51,81,24,-26,-15,-10,-30,-23
-19,-128,30,13,-13,-7,0,-12
10,-31,-65,2,23,11,14,36
33,-67,-12,-22,2,4,127,28
-6,20,10,23,-9,-17,-9,-13
7,48,38,-128,-39,-13,-48,-19
-88,-54,-26,127,20,2,-1,-31
42,10,-57,24,17,5,-10,7
53,3,12,-27,-3,-2,12,22
-13,-16,-2,-84,-17,-2,-2,-18
20,118,40,-46,-26,-2,-21,-8
40,-115,0,-54,1,11,30,28
3,-40,-53,45,25,9,25,21
-25,11,-51,28,-2,0,-4,-7
-4,55,52,-79,-18,-6,-15,-7
-9,51,2,56,-8,-2,6,-17
-18,-53,-64,14,9,-3,-57,-29
-18,-1,14,-22,-8,-4,12,12
5,33,6,-18,-11,-1,81,30
45,16,17,-8,-3,8,19,0
-10,-5,22,-5,-9,-6,-54,-34
19,-4,-13,-14,-13,-17,-16,4
-32,15,-3,-21,-4,-7,2,4
-10,-7,3,16,10,9,-10,6
50,-26,-45,-7,6,7,35,25
-11,-4,6,6,2,14,70,25
13,127,70,-42,-3,18,34,30
9,-89,-41,64,10,-35,-128,-92
-63,-116,-39,-2,-9,-16,-34,-48
-71,6,21,-100,-31,-7,-2,-36
35,47,29,81,-3,-3,11,22
-4,7,-7,36,24,16,35,45
36,15,-32,-30,9,13,45,36
-24,-33,-6,-17,-4,-4,-20,-21
44,44,28,-10,-5,-7,-14,-4
3,11,11,-48,-21,-7,4,10
-40,-28,-12,57,-5,-5,0,2
23,41,-43,-46,9,6,25,20
-6,-75,21,-82,-18,6,16,14
-29,-39,-49,127,29,-3,-26,-23
8,121,-50,57,-2,-22,-16,-39
-11,-128,-3,-33,-15,-13,-78,-28
13,61,36,-48,-9,8,25,11
-9,-39,23,-33,-9,10,47,29
1,-124,20,68,17,5,43,14
-2,19,-15,3,1,-10,-110,-44
19,115,32,4,-1,-2,3,3
71,5,-14,24,16,9,23,17
56,5,-57,-35,2,3,41,35
-128,-2,7,-12,-4,2,-9,-37
-56,-10,17,-4,-7,-11,1,-17
54,3,17,0,-1,-1,-26,0
87,22,6,9,16,32,91,93
-20,-14,8,-2,-2,-6,56,19
-128,-68,-23,-17,-22,-28,-126,-119
-8,-39,-2,8,-3,-12,-120,-77
43,16,-16,14,5,-4,-38,-5
20,4,-7,-5,0,-6,25,26
34,46,10,1,5,7,48,48
7,35,2,-14,-3,9,30,30
15,-128,11,-55,-34,-3,19,7
-4,48,-3,81,29,8,-28,-23
-47,-59,-93,66,40,10,8,-15
-3,3,-9,-24,-4,-8,-13,-12
-10,9,-4,-22,-18,-11,-22,16
-18,4,64,-128,-51,-13,7,4
-9,3,-30,127,46,12,6,-11
49,-9,-14,3,15,9,30,14
-53,14,13,-52,-14,-4,-25,-21
-45,-1,-21,24,-5,-5,-42,-9
11,10,-8,-27,-8,0,24,11
5,-59,-56,22,20,10,68,37
51,66,57,-14,-4,0,-49,4
-51,-20,23,-12,-13,-18,-21,-56
10,30,-10,-9,-11,-10,-75,-59
-37,-100,-16,-6,-7,-17,-17,-29
-14,12,23,-14,-7,-4,-36,-3
29,-55,-22,19,5,15,60,41
50,46,-11,57,31,41,70,64
-61,-7,-23,-29,-17,-27,-6,-2
-53,-61,-6,-13,-19,-22,-86,-38
38,54,33,-20,3,8,84,36
-6,-40,-21,-14,-3,0,6,3
-107,-12,-11,21,-7,-15,-84,-59
-30,-11,33,-51,-17,3,4,-6
38,7,-9,110,43,5,31,5
55,33,-79,-40,3,-4,-50,-12
-50,58,18,-13,-7,-2,-36,-39
-48,-61,16,-12,-5,4,14,9
59,67,49,-19,-6,8,48,45
58,-109,0,13,-8,-5,12,14
-33,17,-31,-33,-7,-14,-45,-39
-52,32,-19,46,21,5,-1,-7
-23,-30,17,-32,-12,1,30,7
37,47,27,-1,-6,-3,9,12
10,-71,-35,13,8,-2,-6,-1
-83,-112,-17,-52,-10,-6,-46,-36
25,39,54,-71,-4,13,33,28
-1,27,-21,112,27,4,-6,26
-1,3,-6,-41,0,7,23,-25
-70,18,9,41,8,-7,20,-12
-55,-95,-62,-52,-29,-28,-33,-22
-9,30,9,-17,-12,-18,-87,-49
34,100,30,-8,-2,7,-16,-4
42,-26,49,-79,-12,13,43,47
35,3,4,85,22,9,64,41
8,-75,-83,-23,5,-9,-74,-45
-81,30,12,11,1,0,-25,-33
-81,-27,9,-2,-1,-7,6,2
45,-13,3,-22,-11,-10,-63,-29
3,-43,-5,-11,-6,1,8,-7
-2,20,10,-6,-2,8,19,36
65,-10,1,-52,-13,-6,95,40
19,16,14,29,-10,-21,-40,-11
-40,92,-22,54,20,3,-40,-3
-18,-79,-12,-5,-1,3,43,8
-27,7,-17,-13,-6,7,15,-1
15,-116,14,-79,-23,-6,27,9
17,-60,-4,64,18,1,-52,-5
17,-8,-31,6,1,2,4,6
20,-14,-15,38,30,3,18,24
42,28,-13,-46,-13,-9,-58,-21
-51,23,82,-128,-58,-11,7,-27
-65,-45,0,127,70,8,-2,-13
50,-23,-85,-73,2,-2,0,12
-32,13,9,-42,-19,-8,24,9
20,35,43,-97,-25,-4,-2,22
105,0,68,48,7,21,63,50
-30,44,-109,23,18,-16,-4,4
-117,-26,3,-22,-18,-20,-68,-49
-61,-47,-41,-36,-28,-32,-116,-102
54,63,31,6,12,21,63,55
26,-13,10,-7,-12,-3,33,21
59,44,12,-2,-10,-11,-30,-10
52,52,10,-3,5,0,-10,26
-24,-18,4,19,1,-1,9,12
-22,-76,-2,1,1,1,4,-2
-51,-5,-19,-7,-3,6,33,0
-3,6,3,0,-2,-1,-17,-2
29,20,-2,0,4,-3,61,12
66,11,34,-28,-14,-7,-33,8
-48,-4,20,4,-4,-5,-69,-6
-20,10,-101,57,12,-7,-63,-55
-3,0,9,-14,-9,-3,3,-19
-8,33,24,-51,-18,-8,-26,-16
-9,-43,23,-4,-2,9,51,42
40,57,-47,-18,4,1,35,44
-1,-58,64,-106,-45,-14,-31,-16
69,92,44,127,28,10,6,10
-12,-128,-87,118,41,13,17,11
-55,61,-24,-67,-17,-5,11,6
-78,15,32,-35,-23,-14,-25,-45
21,-26,1,-34,-19,-12,-19,-12
17,-34,10,-11,-4,3,6,7
47,51,24,-6,0,4,14,17
-32,-59,5,4,-4,-3,28,18
-3,62,0,27,17,20,39,33
8,22,-17,-2,0,5,10,1
-16,-23,0,-5,-1,-10,-23,-2
13,-101,-17,-20,-27,-47,-51,-77
-31,19,0,4,-1,1,-74,-67
100,-60,11,-4,17,32,123,90
39,-9,-6,43,15,12,48,40
-128,-39,-10,-10,-3,-13,-39,-53
-128,-32,3,-27,-17,-23,-117,-89
43,47,48,-22,-10,5,0,18
75,39,-23,-22,14,27,108,50
21,-3,-1,99,8,-17,-24,-1
24,-13,-50,-27,5,-8,-82,-16
-6,-106,-26,-63,-15,3,3,-8
12,41,19,-80,-15,4,21,21
20,91,17,90,22,16,38,33
-90,-63,-78,26,14,-1,-3,-17
-35,5,-12,-26,-10,-7,-25,-17
10,-42,3,-26,-13,-4,2,0
35,90,69,-80,-29,-3,10,7
11,19,21,69,6,-8,4,3
-42,0,-50,-14,12,3,-5,-9
1,17,12,-6,-7,-9,-25,-16
8,-77,29,-3,-2,3,3,7
46,-74,-29,-12,-7,14,29,39
42,57,20,19,6,1,60,44
-128,14,3,-7,-5,-12,40,-31
-13,-19,-25,25,-1,-23,-128,-128
50,2,-17,-15,-13,-17,-54,-44
34,8,9,-37,-2,4,13,27
46,25,35,0,-9,-4,6,36
16,10,-22,-6,14,10,14,39
-61,-21,-19,-38,1,1,115,20
-6,-17,-23,67,9,-7,-31,-15
-10,-29,-9,-17,-6,-6,-35,-11
-121,-5,5,-26,-17,-9,-9,-47
6,15,20,-2,-8,1,0,4
40,27,41,-100,-25,2,-1,12
34,25,-20,127,45,20,78,48
21,-61,-15,-85,-6,13,29,32
-31,45,19,-4,-29,-32,-62,-45
25,20,-35,-1,7,-7,-25,-13
33,-25,77,-107,-31,2,19,19
20,-27,-50,63,19,2,27,-3
-66,-50,-118,109,44,-1,-128,-49
-68,25,1,-29,-20,-8,-22,-15
-13,19,9,-20,-18,-4,-6,9
24,55,52,-94,-19,5,46,17
10,5,5,50,5,-1,45,24
-15,78,-53,-17,3,-1,-15,13
12,-118,-4,41,15,11,62,19
15,86,24,-15,-11,-5,4,-9
-61,7,-10,-17,-16,-25,-90,-64
-28,25,21,-5,-1,-8,-36,-42
69,92,22,5,4,14,23,24
66,-19,-12,-4,4,2,62,64
-61,6,-35,-23,-10,-10,12,-22
-90,-9,-13,-9,-13,-24,-128,-96
-38,7,0,-6,-1,3,11,-5
-3,-56,-9,1,1,5,30,39
32,127,22,6,2,7,78,39
-13,-128,-14,-8,-11,-5,53,-12
-34,26,8,-14,-8,-7,-36,-24
14,14,28,-47,-16,-12,-44,-21
48,22,-29,35,22,9,11,24
19,-68,-64,89,23,12,19,30
-33,5,-39,-63,-4,3,10,9
-128,-18,48,-62,-22,-5,-27,-26
37,-90,-5,104,23,2,2,17
75,2,44,-128,-20,8,52,34
-1,41,69,94,-12,-19,-49,-32
-25,-56,-128,-6,16,-1,-85,-48
-14,17,19,-32,-13,-11,-21,-15
64,-11,11,-25,-7,0,13,20
19,-26,19,-19,-9,9,43,36
-25,0,21,-6,-3,10,70,58
14,3,21,-8,-8,-15,22,-38
-61,16,-15,-8,-5,-20,-128,-73
-36,-47,-6,1,-9,-8,-29,-32
16,42,11,5,3,-1,-4,-4
89,23,12,-1,1,19,65,66
-95,-32,-7,9,9,20,127,59
-29,-37,-29,-20,-8,-13,28,-30
-18,-44,11,7,-16,-36,-128,-79
2,18,8,-14,-10,-12,-28,7
5,-18,7,-1,1,8,31,12
31,-12,23,-8,-6,8,-17,-1
17,70,23,91,24,17,24,20
-22,-44,-81,-86,-12,0,15,1
27,-11,6,127,38,-7,-95,-38
6,8,-5,-26,-1,-6,-10,-6
-28,-36,-11,-21,-10,-4,16,14
15,35,21,-21,-10,3,24,13
-23,25,34,-69,-24,-4,8,-14
-9,21,47,-15,-32,-8,6,3
60,32,-128,59,54,4,3,8
51,-61,-7,-43,-10,-2,-3,23
-98,-39,11,-35,-17,0,-21,-19
84,51,53,-82,-33,10,95,86
91,25,7,127,44,6,115,42
-90,-41,-35,-21,-13,-37,-128,-116
-128,-19,13,-20,-19,-29,-122,-128
45,49,-3,-5,-6,0,39,25
16,-128,2,-20,-10,4,49,39
54,38,75,-36,-16,6,48,55
17,-10,-120,124,43,15,66,36
-1,2,23,-5,11,3,17,46
-49,53,-25,-27,-24,-23,-75,-30
-69,-49,-1,-9,-7,-7,-37,-63
10,-7,2,-1,-2,-1,-49,-37
76,33,50,-22,-1,10,46,36
61,2,9,7,2,14,45,50
-39,-14,-32,60,23,10,10,1
-128,-48,-4,-6,-8,-19,-11,-57
18,8,7,-61,-3,2,-37,-13
19,23,40,21,-7,1,0,3
27,-10,-63,26,-8,-10,-22,4
15,3,-6,-21,5,6,35,19
3,4,-8,18,5,9,27,8
4,43,-29,14,1,-11,-40,-22
15,64,40,-114,-37,-10,-18,9
-37,-68,24,71,21,1,4,8
-110,-71,-32,23,-3,3,21,-6
15,127,36,-40,-11,-1,2,-7
46,11,25,-38,-6,3,16,4
-81,-75,-33,98,15,-3,-53,-74
27,14,10,-24,2,12,-6,16
6,33,6,-33,-8,-1,33,32
8,3,14,-1,-12,-8,11,13
43,-20,25,-34,-23,-24,-67,-37
-21,-8,-10,38,2,1,-14,-16
22,-24,-2,19,21,24,40,31
15,-1,-6,-13,-9,-9,5,10
-15,-25,-3,-10,-10,-16,-35,7
-61,-128,2,-7,-11,-2,22,-18
-2,45,12,-25,-6,3,29,-15
109,31,43,-19,-14,2,-8,27
26,-8,3,34,21,18,22,40
-53,22,-56,48,25,3,31,10
-10,40,-17,13,7,-4,-45,-69
6,-86,-3,-36,-18,-6,-51,-22
-78,-25,61,-37,-19,-7,36,2
6,127,-67,-12,11,3,-13,18
-41,-32,-30,-18,-11,-6,-50,-22
36,-32,9,-1,-6,-9,-28,-11
13,10,-10,26,16,11,23,19
-14,-37,3,-2,6,5,9,-1
-18,-3,6,-17,-12,-8,8,3
22,13,5,-27,-8,1,3,9
12,-3,20,-9,-5,-2,-1,-12
-36,-8,-29,17,8,7,7,-15
31,1,15,-40,-7,-3,-11,-10
127,127,120,-113,-41,17,106,99
-10,-128,-128,127,82,30,127,109
-128,-18,-61,-56,-28,-30,-105,-90
-128,-21,-39,-59,-34,-57,-128,-128
10,38,25,-32,-20,-20,-36,-24
72,30,29,-26,2,18,23,44
56,-31,37,0,-3,18,127,57
60,13,5,26,21,8,30,41
-12,-12,24,11,-9,-8,-8,-1
-19,-28,-41,-10,10,5,-24,-16
-12,-33,-42,35,7,5,-6,1
-7,6,12,-9,-7,1,8,19
-16,-51,-10,-13,-9,-9,-23,-16
-4,65,-3,-6,-8,-8,-71,-39
57,-75,11,-1,-1,1,-1,-9
36,-36,21,-40,-2,8,23,24
-48,38,36,-11,-10,-1,45,36
-12,-30,-42,9,17,-1,-42,3
-11,-31,-80,34,6,-2,29,-57
-88,-86,-17,-34,-31,-31,-63,-77
-8,47,36,-57,-24,-8,-15,-27
32,60,82,59,14,3,-73,-6
39,-13,-100,-41,19,16,29,30
30,11,15,-31,-8,9,29,30
33,13,42,-54,-17,5,32,27
12,-23,0,127,28,4,19,16
-12,31,-38,-45,6,-1,-2,6
-27,16,14,-10,-1,1,6,0
-30,-56,3,-30,-15,-6,9,-9
-13,-67,11,-17,-20,-6,5,2
15,40,-48,-108,-12,2,0,-3
-18,-39,-2,106,18,-4,-25,-26
1,-29,-20,-23,-1,-1,-2,5
53,-49,2,-11,-8,-7,0,-14
-25,41,47,-37,-13,0,-61,-25
-34,-14,-14,-3,0,15,75,52
-14,2,-74,11,19,8,44,31
-123,-42,-1,-31,-14,-16,-48,-63
-68,17,14,-11,-6,-15,-79,-68
68,-73,79,-69,-31,-1,97,30
37,36,-60,113,33,12,25,34
6,66,-63,-9,8,3,-26,-4
2,18,14,-9,-12,-22,-93,-28
35,-15,18,-13,-8,-2,15,-3
-11,-2,12,-2,-1,8,22,9
54,20,8,-6,-2,8,26,24
109,38,17,6,9,15,35,55
-56,-2,2,-55,-20,-12,55,20
7,64,51,41,-12,-5,-39,-17
-66,-128,-55,105,44,7,-23,-25
-62,0,-72,-22,-2,-12,-54,-42
-9,9,-11,-27,-11,-5,-9,-16
11,51,42,-72,-18,0,17,10
48,3,64,25,-5,0,22,21
36,-4,-105,13,23,8,27,25
19,0,1,-8,-4,0,-4,10
-16,20,20,-11,-9,-10,-38,-15
0,-22,-1,-70,-23,2,14,-10
67,52,60,4,-5,16,5,32
8,-114,-74,90,44,-7,48,26
-70,-48,-42,-41,-14,-22,-42,-74
-3,62,7,-25,-10,-4,-80,-25
27,41,28,-24,-5,14,95,48
32,-11,23,5,-6,-4,49,13
-23,-4,-23,-27,-6,-10,-100,-50
-44,34,-21,12,5,-1,-13,-4
-15,-20,12,0,-11,-1,-19,-8
-24,-15,-53,5,0,-6,25,37
-34,-26,3,-5,-2,14,96,25
22,-10,12,2,0,8,-29,-32
40,20,4,-20,-13,-26,-98,-27
11,-30,-3,22,6,-9,-10,4
-45,20,-14,-17,-1,1,-9,-14
22,7,8,-5,8,15,17,13
22,-35,-4,1,-5,3,-3,24
-11,8,9,-6,-4,16,32,60
67,24,72,26,2,-9,56,1
-92,29,-32,105,28,-10,21,-45
-107,-128,-119,-49,-13,-28,-128,-115
-1,-14,-17,-19,-14,-11,-2,-18
49,54,25,-34,-9,3,42,31
29,51,63,-27,-14,10,35,32
12,-22,-55,34,23,7,23,22
13,26,-7,13,1,3,11,21
13,25,47,-100,-16,-1,10,16
-11,-13,30,127,19,1,2,-10
19,-12,-67,-11,8,-2,-32,-11
-59,-14,13,-21,-9,-5,-19,-14
8,-36,43,-56,-20,6,23,32
-27,-12,-14,24,12,-3,17,10
-35,12,-33,-6,-10,-19,-13,-38
8,-90,3,-18,-22,-28,-104,-78
14,70,19,-4,-2,-2,4,8
12,-84,2,-4,7,18,12,18
97,28,22,-17,-1,15,74,39
6,24,-15,22,1,-9,47,41
-114,-16,-26,2,-7,-17,-59,-16
-58,-29,-8,-11,-11,-20,-99,-81
20,-20,2,-7,1,1,-1,-9
41,39,14,-2,6,13,84,21
31,1,13,-10,3,3,-31,5
-5,5,31,-24,-3,3,-5,6
-49,-64,-22,-5,-5,-10,-2,2
26,-36,-20,27,0,-9,-36,-8
29,-46,-24,0,-11,5,26,6
-2,18,-54,32,23,10,6,16
4,30,23,-11,-6,1,38,33
-14,5,48,-53,-29,-18,-62,-43
-2,87,79,-48,-1,-3,-34,-29
-48,-128,-2,125,21,5,-11,-4
22,15,-109,-87,2,10,24,22
-65,15,-17,28,-8,-5,30,-8
10,39,18,5,-6,-4,-8,0
6,5,9,-13,-6,-3,-38,-2
24,-36,14,-16,-5,-2,7,10
22,2,8,-8,-3,0,-13,9
-3,4,8,-8,1,-1,11,0
8,4,14,25,-3,2,30,4
-9,48,27,8,4,-1,-23,-15
71,93,3,-50,-13,-2,-7,28
-4,-115,-1,67,15,4,0,7
-128,-126,-34,57,13,-4,-13,-53
-45,57,-4,-20,-20,-20,-21,-55
16,28,9,-12,-6,-1,-11,-4
42,32,23,-26,5,16,54,47
61,19,23,15,-3,5,25,44
61,26,12,23,7,-2,-1,20
-16,-1,-30,21,3,-8,61,21
-72,-22,-24,-17,-16,-20,-71,-68
-1,4,-3,-14,-7,-11,-58,-53
-15,-41,14,-13,-5,0,-26,-10
35,-8,57,-56,-8,10,27,19
19,32,-24,127,28,13,43,38
5,127,-14,-5,-1,-1,30,35
-41,-128,-22,-27,-17,-7,-16,-23
-51,-47,11,-65,-8,0,-25,-27
1,45,28,45,-7,-2,-3,-9
21,7,7,-60,-7,8,4,8
15,-63,-51,76,19,7,24,18
6,-54,15,-55,-11,-6,43,4
47,44,48,19,-18,-8,-14,15
-21,-24,-20,19,9,-2,21,20
-74,-17,-43,-5,13,3,5,-10
18,-13,-10,-27,-19,-16,-97,-65
30,36,10,-31,-17,-8,-14,-16
-12,2,2,6,-4,2,13,14
-1,-30,51,-72,-4,2,20,10
54,62,-3,108,25,17,115,72
-2,35,17,-6,-7,-4,-25,38
0,34,33,-27,-3,2,-22,-67
-47,-43,-16,0,-14,-32,-117,-74
-12,-51,-59,-38,-7,0,26,-11
103,41,-4,-7,-1,5,72,56
-35,-6,11,-4,-2,-4,-26,6
-71,4,8,-9,-7,-5,-13,8
47,36,24,-4,-7,-7,-45,-26
17,-13,-16,-2,1,-1,3,1
-24,60,-23,13,14,8,64,37
55,-15,1,-22,-7,1,23,8
-33,-31,68,-128,-36,-5,-42,-28
-28,-46,-5,127,30,6,2,-6
4,46,-77,-2,30,1,0,2
-8,64,3,-39,-5,-1,-10,-9
3,10,16,-28,-13,-1,23,15
27,102,16,-25,-13,2,27,22
57,-84,17,-16,-10,5,55,36
23,-22,-17,11,-1,-10,-23,-6
-62,2,-2,6,-11,-19,-60,-59
-95,-38,-1,-5,-7,-12,-117,-78
24,58,2,17,-3,2,6,-5
45,-86,4,-4,6,14,50,43
36,66,5,26,12,8,34,45
38,59,-40,-45,1,-2,-1,1
2,-3,-27,5,1,-7,23,-1
-43,-11,12,1,-11,-7,-14,-22
-8,10,30,-38,-17,-6,-8,-1
6,-18,13,25,0,4,34,18
57,13,-55,53,21,9,69,68
-15,22,0,-38,-10,-11,-2,1
-48,-1,20,-10,-21,-7,-96,-72
-43,-1,2,-20,-16,-26,-58,-68
21,-24,3,17,9,8,39,8
-30,-46,-36,9,19,9,-35,19
45,21,20,15,-5,-3,27,30
18,-12,3,-32,-12,-6,32,14
-70,-7,3,-21,-9,2,25,-14
8,42,10,-10,-9,-15,-65,-42
37,62,6,-3,-4,-13,-31,13
-1,-61,0,-7,3,10,12,21
21,38,1,12,0,8,49,3
8,-88,18,-33,-12,-10,5,-2
7,-24,41,1,-8,9,1,6
68,26,-91,95,33,14,43,49
-51,26,-6,4,-7,-13,10,-4
-105,-128,-31,-45,-25,-22,-94,-84
-38,-75,11,-13,-20,-12,-50,-55
46,14,16,16,5,5,28,17
28,1,-31,-30,6,9,9,16
99,81,65,-60,-6,7,41,37
23,-38,8,81,14,13,39,41
-3,50,4,62,16,3,11,31
-39,-128,-84,-24,5,5,-23,-17
-120,87,-15,-29,-18,-10,-9,-69
-101,-40,16,-65,-32,-26,-20,-74
40,49,28,-7,-3,1,-27,-3
63,32,40,96,24,15,39,55
27,26,-26,-20,11,10,-12,43
-27,12,-17,-23,-13,-9,-32,-18
17,-65,9,-12,-11,-6,60,1
-17,-6,7,1,-9,-6,-15,-16
-1,71,13,1,12,7,4,6
-20,4,-17,-15,-4,1,-2,7
8,0,10,-32,-16,0,30,10
27,10,-4,17,3,2,32,11
-24,-27,-57,22,24,7,9,12
-15,45,9,-16,-7,-10,-102,-33
-31,21,32,-12,-13,-15,-52,-22
-6,-27,-39,-24,-16,-12,27,-8
-53,72,-4,-11,-3,-2,32,7
-9,33,19,-5,2,11,20,3
39,54,19,-31,11,14,-38,11
33,1,27,90,9,-4,21,19
-19,-22,36,-100,-38,-15,-8,-24
-38,20,21,127,32,15,-7,-23
28,19,-76,-60,22,17,74,28
-29,-82,-21,-40,-18,-5,27,-6
39,-82,-38,-37,-19,-11,-99,-28
2,28,25,-15,-12,-9,-12,-10
-28,-1,22,-6,-8,1,6,0
-13,14,11,-2,1,-2,-5,-1
23,46,10,6,2,4,22,14
83,-31,17,-32,-5,11,53,43
10,100,14,57,24,16,40,46
-77,75,-11,27,11,4,-29,-20
-128,-83,-33,-30,-25,-35,-51,-97
9,16,1,13,-11,-10,-8,-22
26,40,16,-6,-8,-1,6,16
39,-23,1,-27,-5,12,45,22
33,-54,-22,35,9,4,-18,6
-16,23,36,-43,-6,-5,7,4
15,41,-11,47,12,0,9,-12
42,-13,7,6,-1,4,-66,8
7,0,10,11,18,10,23,4
39,-12,16,16,-8,5,41,16
-79,5,-63,-15,10,8,-5,-10
-74,3,-24,-65,-19,-10,-27,-26
6,-18,30,67,-2,-7,-14,10
30,-57,-109,-8,10,-2,8,10
78,-22,14,-21,-9,-15,-5,-7
-44,-9,3,-40,-18,-6,-41,-18
-16,12,11,-5,-2,2,26,17
4,57,13,-14,-7,2,-14,-12
27,-52,-2,-1,0,-7,-15,-15
17,11,10,-1,0,5,-15,6
34,6,2,-2,-6,0,19,6
-10,5,48,-19,-14,-1,14,15
36,12,-25,56,26,12,34,33
-35,-18,-56,-7,6,6,23,-5
-128,-7,-4,8,11,3,-42,-32
-8,-127,13,13,-8,-16,-52,-22
50,98,-19,29,-11,-15,2,-12
57,-9,9,-24,-9,1,-7,6
8,30,35,-9,11,19,52,51
-38,-49,-30,30,-2,-5,8,-1
-114,-128,-18,-23,-13,-21,-85,-76
8,53,16,-19,-1,1,-10,4
59,57,47,-57,-20,-2,18,8
66,-56,-3,43,-1,-2,-35,-1
-87,-8,-70,62,30,-1,43,8
-64,1,-11,-23,2,-4,-28,-30
12,-47,-3,-32,-21,-3,-16,-14
50,25,10,-21,-11,-3,16,15
49,-9,32,-12,-11,-15,-22,8
17,41,-1,43,10,0,4,9
-71,-53,-14,-46,-12,-5,12,-1
42,53,63,-1,-16,1,-8,7
-35,-42,-37,116,54,17,47,30
-24,-123,-55,-14,2,2,53,23
32,53,-6,-28,-13,-4,-23,-21
-29,-102,-5,-18,-12,-16,-116,-56
-22,1,11,-38,-14,-8,-27,-17
-2,39,52,-1,-12,1,0,18
27,4,-14,53,13,4,51,1
9,-61,-34,-10,-2,-4,-30,-17
-48,102,-1,-23,4,6,-7,5
31,21,27,-42,-7,13,45,21
-21,-92,-20,37,2,-13,11,12
-45,-6,-38,-89,-17,-8,23,-5
6,-40,-6,40,-7,1,-45,-34
44,18,-23,-1,15,7,25,0
34,-66,8,-23,-10,-8,-47,-11
-7,49,32,6,-1,-1,3,21
-34,13,3,-10,-3,-1,-6,-6
-90,-38,-6,-63,-30,-2,-17,5
2,11,13,50,14,7,65,9
14,-8,-40,-79,-6,-4,-27,-32
30,36,-6,127,37,0,-73,-36
-8,16,-20,18,7,4,-10,27
42,10,22,-10,-10,-4,66,41
24,127,28,-7,-2,0,19,22
-43,-30,-2,-27,-15,-7,23,-44
12,-29,4,-16,-20,-21,-77,-26
-81,-5,27,-4,-6,2,13,-1
-43,5,-28,38,22,8,5,-7
21,50,-10,-3,-3,-10,-10,2
71,-91,5,-18,-7,-1,-5,8
-14,-5,-5,18,10,15,6,30
-39,-39,0,-22,-8,1,-5,-3
30,20,12,17,-9,-16,-18,-20
59,9,-9,-39,-14,1,21,10
-35,15,-84,54,20,1,26,5
-5,-39,-22,-1,0,-5,-2,0
14,-31,44,-40,-9,-1,-3,0
-4,-14,10,40,10,7,-22,25
6,64,-39,-27,-8,4,46,22
-12,-32,22,-12,-13,1,99,-7
-20,40,0,7,-5,-15,-128,-70
-48,-65,-37,-21,-4,-13,-48,-55
3,-53,-19,5,3,5,-48,13
-14,27,19,-15,-13,-7,49,18
23,32,12,2,-3,1,69,42
-18,127,33,-12,2,7,3,2
-26,-128,-5,-20,-12,-7,-78,-39
42,-22,16,4,-7,-5,-30,-31
36,127,-56,36,14,5,8,20
-16,-103,-20,-30,-8,-3,19,-2
-16,73,-1,34,-3,-5,11,5
-8,38,3,-9,-3,-4,-2,10
24,35,31,-46,-12,-1,6,14
32,-18,46,52,16,14,35,19
30,4,-69,-3,19,8,68,31
24,73,-20,-42,-16,-14,-8,-13
-38,-44,-19,6,-7,-13,-110,-60
-104,-4,27,-69,-21,-16,-61,-37
6,-6,25,48,-9,-3,13,1
52,11,-69,-2,20,15,52,36
33,24,23,-22,-1,13,32,31
-53,-6,13,-11,-4,-1,-39,-13
-8,-128,-27,-25,-12,-17,-33,-26
-14,20,10,-29,-12,-8,-48,-23
15,-40,-2,76,16,3,28,6
25,-21,-15,-12,0,-3,15,5
-7,19,41,-9,-8,3,3,15
-14,5,-40,-40,6,2,-3,14
2,-35,-39,32,7,7,33,24
-2,-6,11,-20,-1,3,43,-3
5,7,-13,9,-7,-7,-52,-23
-39,-39,1,-11,-3,-15,-43,-37
-42,-95,-15,-3,-5,-9,-31,-42
15,83,-18,-1,1,0,-4,11
28,-9,13,5,0,1,17,30
18,54,15,-7,-2,7,30,17
-48,-116,-2,-33,-4,-5,5,-8
-74,-43,-5,15,-12,-18,-63,-28
-75,-3,-26,39,3,5,32,-29
58,31,25,-33,-7,-1,-19,6
43,-5,-10,-20,-20,-6,22,5
87,52,3,40,16,1,-8,12
-55,-86,-58,-24,10,3,6,10
-78,-26,1,9,-10,-10,1,-13
13,6,-15,-30,0,6,-2,-6
81,13,6,-26,-13,0,-3,22
56,15,46,14,-4,4,18,23
-17,-64,-60,-20,7,9,17,-2
-8,45,-7,51,9,1,13,0
-101,-51,-2,2,6,2,-47,-32
-3,51,10,-9,-15,-15,-36,-51
-14,-70,28,-88,-30,-10,-23,-20
39,57,27,30,-22,-13,2,11
31,-98,-22,107,36,12,45,42
-12,68,-20,-24,10,9,25,14
-5,-128,-3,-36,-20,-23,-29,-41
-31,127,1,-13,-12,-12,-65,-25
37,68,21,-3,3,11,13,31
30,-98,-26,-30,-18,-12,14,-1
-32,28,6,32,3,6,25,-3
19,8,0,1,3,1,6,7
-27,0,10,-41,-2,2,-10,0
-34,-1,-14,72,7,0,-11,-15
15,24,-7,-14,-8,-7,67,18
87,-10,20,-16,-5,4,36,47
-21,22,8,-26,-3,-8,-14,-2
-82,0,-16,47,-10,-15,-38,-52
-10,-30,-4,12,6,-4,-79,-37
27,-46,8,-14,5,12,8,11
-12,-25,-12,-9,1,6,17,10
34,-18,9,-42,-30,-16,-8,1
-41,127,-26,54,11,-13,-12,-6
11,9,-12,14,2,-4,-9,-1
30,14,8,-19,-2,1,21,18
-4,-59,23,-45,-17,-4,-33,-11
-51,-26,-68,39,4,-1,34,0
-50,2,11,-20,1,-4,-8,-4
38,65,42,-36,-15,0,-8,5
27,-128,-26,101,28,7,-23,-1
-11,56,-44,-17,2,-4,-11,-16
-10,-20,-5,-29,-11,-2,5,-13
50,37,13,-5,-7,2,32,29
15,-128,9,-46,-9,2,25,18
-71,-4,12,30,3,1,-67,-34
-54,-49,-48,-7,1,-17,-55,-36
35,67,37,12,4,-1,-3,2
61,-31,-20,-17,-5,-1,-14,-3
-40,-9,-16,-23,2,20,30,27
-55,5,22,-18,-12,-2,25,6
-22,-37,-9,14,-1,-11,-4,-25
57,-58,-32,-44,-12,-15,-26,-25
-25,-84,-3,17,3,-3,-6,-20
-24,34,-2,1,-1,13,29,31
35,-18,14,-21,-12,4,8,30
35,9,-9,-47,-5,-4,-30,-24
-22,33,35,127,22,-5,-50,-12
-33,-128,-65,-35,7,-2,0,1
21,-20,0,-20,-6,-1,16,6
71,41,7,-9,0,7,18,22
-35,0,6,-4,-4,9,11,12
-128,-17,-4,-64,-19,-11,19,-46
5,30,54,23,-20,-15,-80,-31
27,-128,-114,9,10,-5,-10,-18
46,-95,-31,-6,8,6,54,12
65,9,23,-2,-2,3,18,28
-42,29,5,-9,-4,2,-8,-4
-55,15,14,-52,-11,-1,-15,-20
46,28,51,-17,-9,14,31,27
30,7,-60,126,31,-9,49,20
-8,-89,-34,-59,-19,-22,25,-38
25,-22,-8,-17,-12,-12,-117,-49
6,36,8,-7,-5,0,5,1
-41,-9,11,-13,-3,4,16,7
4,18,12,-24,-14,4,24,16
2,9,27,-20,15,7,12,8
58,51,-23,92,22,10,61,45
48,-77,-12,-2,1,7,46,43
-86,-41,-30,-37,-13,-11,-33,-25
-125,-14,-12,4,-6,-29,-128,-104
15,12,18,-13,-3,-2,9,-3
15,5,-17,-1,-3,5,23,18
17,-7,20,-24,-5,4,24,6
55,8,-14,66,18,11,32,30
71,43,-21,-14,9,20,22,66
-60,-54,-6,-24,-26,-27,47,-8
-88,-22,-2,-26,-19,-17,-128,-125
54,-56,10,-32,-11,-13,-45,-24
-30,104,15,66,14,9,28,17
2,-42,-46,14,17,12,28,31
6,-3,-15,-2,-3,-4,27,10
11,46,33,-49,-17,4,2,16
45,35,43,13,8,11,22,24
5,27,-48,-3,0,-11,17,-3
-45,-19,6,4,-8,-22,-124,-53
-123,7,5,-39,-15,-12,-26,-38
-10,-79,-8,12,-5,0,-5,-31
22,-17,8,40,10,3,23,13
30,11,10,-24,-1,7,34,31
70,38,7,8,6,10,31,30
-7,11,13,17,2,-1,36,15
-47,-84,-34,-31,-6,-1,2,-2
17,22,31,-102,-37,-16,-4,-5
8,-67,-27,80,24,-3,-38,-14
-23,-22,17,15,5,0,8,-9
1,63,-16,-7,0,-6,-24,-5
3,-6,-42,-14,4,0,6,0
17,9,-28,-25,-2,4,7,4
