Channel_1,Channel_2,Channel_3,Channel_4,Channel_5,Channel_6,Channel_7,Channel_8
103,41,19,-16,1,13,-11,33
66,-10,-3,-2,11,6,19,41
-99,-27,2,0,-6,-19,-27,-45
-22,10,-34,-8,-4,-6,18,-30
-11,34,56,-99,-23,-7,-20,-23
57,-7,-13,127,22,9,47,37
3,16,-67,32,29,11,13,44
-53,7,-14,-27,-8,-12,-29,-20
0,-8,68,-107,-21,-7,-45,-30
18,38,10,127,22,2,0,12
-4,19,33,30,-6,-5,-11,0
-19,-50,-43,22,11,10,12,9
-1,26,8,-33,-2,4,3,7
79,55,119,-38,-19,15,44,41
-69,-76,-9,-14,-11,-10,-4,-7
-8,6,-34,32,3,-4,25,-7
44,-38,14,-57,-15,-15,-106,-75
-25,78,103,-7,-7,14,26,23
97,-24,-128,104,54,14,33,33
-2,27,36,21,-2,-4,-34,-22
-107,-26,-18,5,-10,-9,-100,-39
-38,-69,68,-128,-32,4,64,19
22,5,-79,127,53,11,50,30
123,1,-32,-52,7,9,25,28
13,-36,-121,94,30,11,25,19
-15,29,0,-23,-4,1,-23,1
28,53,56,-58,-22,-6,8,3
5,-101,-24,79,27,-2,9,-1
2,27,-8,-16,3,6,16,3
7,29,31,-28,-12,7,30,18
18,91,-5,10,2,3,2,-3
-1,-31,2,-7,-10,-13,33,-13
19,86,15,-128,-11,9,7,26
-24,48,0,127,30,10,16,-5
-22,-128,-70,-27,-4,-12,-57,-31
33,127,64,12,4,6,31,31
-20,-25,-16,-46,-16,-9,32,31
-41,-20,12,3,4,1,4,-10
-10,27,8,-12,-17,-16,-54,-41
55,15,6,-28,-1,4,2,16
127,-14,-12,37,4,-2,-36,36
-128,-34,-50,32,8,5,68,2
-26,-18,-46,78,17,6,45,12
-32,42,-9,91,15,-8,-22,-6
-18,-39,5,-72,-27,-8,-12,-1
-2,4,14,15,8,1,51,45
3,-11,127,-65,-1,0,4,4
-1,-3,13,-6,3,14,-19,3
-25,-64,-15,-22,-6,1,25,3
25,-30,-54,-18,2,5,29,24
-65,9,5,-8,-2,-1,-2,-8
1,60,47,-37,-9,7,28,23
31,-128,-16,75,10,-5,26,27
-17,59,-10,-5,3,0,-6,-9
126,51,27,-2,-7,0,23,14
20,-59,-77,-24,-22,-24,3,21
-128,21,-8,-7,0,-12,1,-81
127,7,47,-43,-8,-5,-128,-60
106,58,-40,72,3,1,55,35
35,-50,-34,0,-4,2,60,54
-114,66,53,-61,-7,4,3,14
86,-65,-94,55,11,-8,-72,-47
-53,5,22,25,12,-1,-35,-47
-52,2,5,-18,-8,-7,-29,-8
7,2,21,-25,-9,6,86,34
40,8,13,-46,-9,4,37,39
58,49,-18,81,10,-2,-29,-14
-39,-42,-29,13,-10,-11,-77,-38
-72,-16,64,-83,-30,-5,11,-17
-7,5,-128,127,55,11,21,9
3,-27,-52,-37,-9,-3,8,11
53,127,50,-56,-15,-2,20,31
51,-128,55,-81,-29,6,54,25
-70,-51,-62,127,41,-6,-20,-41
-126,-67,-2,-22,-8,-16,-119,-74
-8,-18,16,-26,-21,-22,-14,2
80,55,1,-16,-10,4,33,15
68,67,-17,-22,13,21,67,50
-14,-55,42,6,-11,-9,-9,21
-21,-10,11,-11,-8,-13,-75,-52
-114,30,2,64,10,-5,-15,-24
18,44,-75,-7,16,5,-26,-49
20,-70,1,-9,-5,-2,41,8
49,52,38,-23,-1,10,33,34
94,2,-22,12,10,27,30,38
-9,-12,-5,14,1,-2,-11,-19
-5,34,-1,-22,-9,-1,-45,-32
19,-8,-9,-57,-19,-11,-1,14
-3,13,5,10,7,3,59,52
83,4,24,54,18,8,94,51
-128,-51,-57,-8,-2,-3,-113,-57
-26,39,6,-59,-26,-22,-69,-53
-44,42,71,-101,-51,-20,-49,-59
-48,31,-37,127,59,33,59,29
-16,-14,-68,-67,16,9,53,24
55,20,-3,-70,-9,-1,8,16
32,-6,16,-69,-30,-18,-22,-6
8,32,34,1,-3,-3,-23,-15
-12,-59,-6,-17,-8,-6,14,-5
35,54,3,49,0,5,33,28
-10,67,69,-58,-14,8,34,23
-48,-86,-6,81,3,-5,-35,-18
10,-7,-71,0,12,5,10,-2
62,12,29,71,10,1,5,14
-11,-19,35,-13,-13,-14,-12,0
-24,-79,-63,4,-7,-8,-69,-35
36,-19,1,-7,-3,-4,28,-5
6,20,14,-17,-6,2,7,7
34,-22,2,12,-9,-1,14,44
-128,40,0,-1,-4,2,-6,-43
-11,32,17,-44,-9,2,-80,-40
47,-128,-10,60,5,0,109,32
68,8,-42,-8,12,-3,26,13
6,-4,-23,-17,-9,-18,-116,-23
-87,41,32,4,-18,-19,-52,-18
-51,-55,4,-26,-9,6,41,-11
43,11,-8,7,-1,10,44,31
22,23,8,-13,-1,3,31,18
18,-61,22,-12,13,-2,-55,-13
-1,39,-81,127,27,4,-5,0
-1,-20,-12,-12,4,-3,-9,-6
8,36,20,-22,-11,1,7,11
5,-29,4,-65,-13,4,19,22
18,43,127,-103,-42,5,40,15
5,-49,-128,127,90,22,12,-7
-30,0,5,-41,-6,-9,-25,-11
-43,-54,12,-47,-24,-23,-19,-41
0,27,27,-25,-8,-4,-33,-18
-5,34,21,-3,1,9,1,2
16,45,13,1,-4,6,44,18
92,13,6,22,10,15,68,48
68,9,8,-55,-10,9,33,43
-97,-57,12,53,3,1,-39,-9
-33,14,-116,-10,12,-17,-59,-54
-128,-37,-20,-30,-15,-13,-82,-79
39,58,-1,-25,-10,-8,9,-6
32,-51,6,-12,1,10,34,36
-8,-9,-3,-7,0,2,45,32
13,-24,9,5,-1,4,-20,5
-32,31,38,-27,-10,8,14,11
44,72,10,30,23,28,73,54
31,59,-23,99,38,-1,9,-3
-32,4,-33,-34,-7,-24,-128,-81
-22,-17,-5,-2,-19,-17,-20,-20
6,7,12,-13,-8,2,19,7
17,37,14,-6,2,14,49,24
-65,-75,25,-62,-22,-3,16,-4
21,26,1,32,-4,2,16,11
63,8,-128,63,27,8,22,27
36,6,51,-51,-17,-2,10,28
-9,-46,26,11,-1,10,38,14
-61,109,-46,56,33,-12,-51,-58
-104,-78,-3,-23,-12,-15,-105,-81
-9,48,22,-13,-6,0,-11,1
100,14,54,-82,-11,15,30,34
33,17,17,88,5,-9,26,34
-48,-71,-96,34,-8,-26,-35,-9
1,14,-6,-15,-8,3,31,-8
-45,-25,7,-16,-5,5,-10,-28
14,6,5,-17,1,7,-39,4
52,39,31,-1,-1,3,43,30
41,-48,-7,-3,-4,-7,-18,13
-100,-48,-19,-17,-3,-4,-24,-40
-70,10,-2,-3,-8,-7,-41,-54
41,81,18,-29,-9,16,75,73
103,25,20,59,6,3,35,49
-4,-35,-75,-52,-2,-26,-75,-62
-100,-128,-21,6,-13,-32,-69,-78
88,44,37,-32,-3,7,10,7
-55,23,2,48,5,14,38,30
9,32,41,-33,-8,5,1,39
15,34,-16,44,0,-7,37,4
-15,-24,-2,-50,-7,3,1,-3
47,8,-20,-13,-14,-4,-24,-3
40,-68,2,77,30,9,21,36
-4,55,16,-23,-6,0,24,-2
-60,-31,45,-85,-29,-7,-46,-50
7,25,-69,33,16,-6,-31,-15
25,24,-12,67,34,2,14,22
22,-14,33,58,30,18,49,43
42,27,-84,-38,-14,8,105,48
-67,-128,8,-35,-22,-28,-74,-49
-96,17,18,-36,-33,-47,-128,-121
21,6,17,-16,-11,-16,-25,-37
60,76,11,2,0,9,47,23
42,18,2,4,4,12,49,36
27,31,7,3,4,12,36,32
8,1,13,0,7,11,25,22
8,-43,-19,-6,3,4,-24,11
-8,27,20,32,13,14,50,33
86,-34,-15,-63,-22,-12,23,49
127,88,9,-11,-6,4,48,62
-128,-12,-82,84,29,-18,7,-44
-128,-13,-34,-34,-23,-38,-128,-128
36,-82,14,-48,-21,-20,-9,-53
90,47,1,-1,-8,1,19,30
71,-6,43,-44,-10,16,49,52
47,91,18,61,23,18,35,41
7,-128,-45,3,2,-2,11,21
-10,13,1,6,-12,-7,0,4
0,55,109,-32,-10,-7,-19,-3
-20,-43,-67,53,32,9,-1,-3
-20,12,-3,52,25,9,6,1
78,18,27,-93,-32,4,36,43
115,55,-40,98,24,20,53,75
-128,127,-90,57,32,-1,7,-3
-76,-85,-8,-42,-38,-36,-128,-128
-14,-10,26,-33,-23,-20,-79,-58
-24,-85,-7,-30,-13,-10,-46,-18
26,85,21,-11,-3,2,7,21
19,-83,24,1,2,16,65,31
25,43,-12,10,7,3,59,28
35,-128,3,0,0,3,-34,6
30,73,7,3,1,1,-12,6
-28,35,19,2,-5,2,6,0
-27,7,-38,-18,1,0,20,12
47,15,3,31,22,24,55,36
23,17,-9,-6,-2,-9,10,12
-4,-21,-16,-18,-15,-14,-108,-58
37,6,30,-21,-8,-1,6,21
-52,-10,8,24,0,4,106,28
-128,14,-38,-20,-11,-17,15,-36
19,-9,64,-105,-33,-18,-80,-49
-33,-61,-37,127,35,-6,-92,-34
-9,-42,-69,-16,20,21,45,-7
18,30,5,-10,8,11,38,35
80,-19,67,-105,-44,-4,14,25
86,20,9,110,40,-2,13,37
-10,-79,-5,-13,-8,5,19,8
-32,47,-36,75,25,7,36,-11
-118,-7,-8,-36,-14,-10,-52,-39
-57,-49,15,-22,-11,-5,-21,-24
35,-29,15,-17,-3,1,5,11
73,60,79,-115,-26,8,13,14
59,43,15,114,25,32,108,102
-39,20,-128,23,65,9,27,19
-128,-112,-5,-69,-27,-36,-128,-128
13,-29,23,-35,-22,-24,-87,-47
50,-1,-16,-15,-6,7,74,38
2,7,14,2,0,13,40,38
-62,7,13,2,-6,-1,44,13
67,37,6,7,-3,2,8,10
39,-13,9,9,-2,2,21,28
5,-29,-3,-7,6,2,28,31
30,73,-14,30,-5,-6,-37,-43
-90,-128,-27,-10,-14,-18,-100,-51
-38,38,14,25,-4,-15,-35,-14
-20,-9,7,-15,1,7,2,-23
54,19,28,3,4,9,27,19
-22,10,-16,33,4,13,87,15
25,-23,16,-80,-20,2,26,34
79,-14,-17,123,25,4,-31,4
-24,-100,-128,-1,21,-10,-103,-54
-93,47,28,-27,-17,-23,-71,-57
-106,-49,22,-28,-6,0,9,8
-30,1,102,-128,-16,1,15,-10
45,-124,2,127,-10,-6,41,28
8,52,-108,-2,27,14,45,18
3,-30,-14,-12,5,1,-29,7
19,0,36,-7,-8,-1,3,-1
21,20,0,-29,-19,-1,6,11
-8,21,6,-3,-7,-6,16,14
1,-22,16,-31,-1,-1,36,31
65,43,42,-29,-6,0,18,24
-52,25,-65,38,12,3,-71,-69
-13,-11,25,7,0,-15,-111,-33
-21,-60,-35,-17,-11,-8,-13,1
20,42,12,-9,-4,1,51,19
-32,3,-1,-7,-7,0,62,-4
-21,62,10,-6,-6,-4,-34,-23
6,-38,2,-18,-5,-6,-8,4
40,32,92,-15,-12,5,1,-1
16,54,-103,8,15,8,15,35
-34,-47,-58,44,12,5,28,18
-23,-72,-21,-31,-17,-12,-14,-20
-26,-4,16,-13,-10,-16,-81,-29
32,127,9,-12,-1,7,60,17
70,31,62,-74,-27,9,52,45
1,-4,-92,127,45,11,14,4
-3,15,1,14,14,9,8,-5
74,-8,62,-52,-15,-11,-99,-42
-63,-78,13,77,19,-13,-18,2
-30,-3,-52,36,-6,-3,31,15
-8,-30,51,-98,-10,1,34,6
-25,70,0,78,15,4,-8,-10
2,-23,-7,-3,-5,-9,-6,-2
59,81,24,-5,-2,1,-3,21
-27,-90,-7,-27,-16,-14,-8,-23
16,19,20,-22,0,13,23,5
73,88,124,-85,-10,22,75,55
-24,-39,-128,127,52,2,-9,6
-79,-55,-57,-33,-10,-21,-121,-75
69,2,48,-54,-22,-20,-24,-3
46,42,45,-12,1,18,24,32
-6,-51,2,0,12,17,38,40
-128,12,7,-7,-7,-12,-50,-61
37,-47,-2,-33,-2,2,33,-12
127,127,-13,64,7,-9,-80,-8
-90,13,8,-3,-12,-13,-57,-7
-46,-54,-11,-35,-13,-8,38,-25
-7,-17,15,20,3,6,-5,3
31,24,-21,-94,-8,4,15,32
36,-14,-35,127,33,-7,5,32
-50,-18,12,-22,-5,-8,0,-1
23,57,18,6,-8,4,-8,-5
19,-60,-9,-87,-15,6,25,17
26,73,91,10,-15,5,43,26
-128,-73,-118,127,39,7,4,-24
-34,-31,-65,-31,1,-3,-23,-31
47,127,33,-27,-8,-5,-26,-18
13,-18,16,-22,-8,-1,-39,-21
32,-14,12,-7,-1,8,41,37
-5,-20,12,-20,-6,-2,23,8
-3,52,76,-64,-17,-12,-38,-26
48,-44,-56,73,14,-11,-41,-12
-23,-65,-57,-2,15,8,50,36
46,46,5,-12,-2,4,50,35
-1,4,5,-22,-8,-5,-13,17
-53,-24,9,-41,-30,-22,-40,-37
-44,40,8,73,20,-2,-21,-41
46,-27,-3,-10,-5,3,-16,-8
127,12,39,5,0,24,48,86
18,20,8,0,20,23,118,69
-128,-35,-37,-20,-5,-13,-79,-89
-11,-24,1,-35,-22,-42,-128,-128
3,1,0,25,-4,3,25,-5
48,-35,5,-4,-3,-2,22,34
31,8,2,-29,-10,-13,1,19
8,12,-14,28,5,-2,-11,5
3,-13,-10,60,14,10,0,-2
46,-17,3,-59,-9,12,18,42
8,1,32,38,9,6,42,28
-128,-13,68,43,5,-10,-68,-49
-33,89,-128,-1,20,2,-1,-15
42,-128,-19,-19,-17,-9,7,8
69,-13,46,-30,-2,12,16,13
-23,20,11,41,3,-3,-11,-2
-122,-32,-47,-62,-15,-6,-14,-35
-87,30,12,-11,-11,-12,-21,-48
60,-20,-5,18,12,9,-5,20
43,41,41,35,19,12,33,43
62,-44,-12,-28,-2,-1,-25,-1
20,14,-27,-26,-16,-29,-23,-56
-59,49,21,-11,-10,-19,-70,-13
50,17,3,26,2,3,27,51
35,-68,57,-82,-41,0,47,19
-74,-128,-127,127,87,28,127,-8
-73,2,-22,-53,-29,-33,-83,-70
-52,12,-10,-32,-22,-25,-107,-55
43,30,23,-24,1,8,51,27
79,23,34,5,-2,9,46,52
56,0,-3,3,-10,0,25,27
12,30,8,12,4,-1,-11,-11
-49,-38,-69,-32,9,-3,-13,-5
29,-45,-1,45,16,3,0,21
-40,-2,4,-9,-1,-3,15,-19
-3,18,10,-78,-16,-2,-15,0
74,45,25,52,3,10,45,34
28,-49,-77,17,4,-5,38,7
-71,4,-24,-41,-6,-6,-56,-14
16,-25,3,-8,-3,-8,-42,-13
-32,-8,7,-16,-6,4,14,-12
-2,119,63,-52,-34,-1,18,-4
-97,-128,-70,92,38,-8,-28,-3
-3,-22,-42,71,10,-7,-5,-25
79,58,22,-24,-5,3,5,15
50,82,35,-20,-12,-4,12,11
55,-32,-3,-37,-5,10,36,29
-42,34,4,20,5,-2,31,10
-25,-54,2,-2,-2,-5,-35,-24
17,-8,48,17,-7,-13,-78,-46
-21,-43,-39,7,17,5,31,11
110,-16,-19,-33,-9,1,31,50
-111,8,22,-43,-13,0,43,-7
-56,-38,57,12,-7,-8,9,-2
25,-6,-77,24,15,5,21,-19
26,47,-30,-3,3,-2,-63,-12
-7,-12,5,-24,4,13,-19,-1
-12,-53,30,41,2,1,11,7
-46,96,-4,-31,-13,-9,4,-18
3,-51,-2,-16,-7,-3,-6,-13
3,-10,17,-21,-8,-3,-11,1
40,100,26,16,-1,8,32,29
55,52,50,12,3,-4,22,23
-55,-115,-88,16,10,-13,-40,-24
-29,-28,-29,-1,3,-5,-33,-23
-5,95,38,-23,-11,-2,-39,-4
32,-60,57,-46,-27,-5,-6,0
20,58,-74,41,22,15,82,30
-23,-35,-20,54,16,7,16,-1
12,17,22,-14,-11,-5,-12,-7
-48,48,16,-29,-14,-8,-1,-10
2,-14,21,-58,-18,-3,-24,1
4,5,55,23,-28,-27,-9,-13
28,26,-94,51,48,9,-20,2
57,79,10,-29,-4,8,33,31
4,-101,-20,-10,-11,-2,22,34
-32,-1,43,-47,-18,-11,-20,-9
-87,-9,-66,27,6,-3,-23,-48
36,16,-4,-12,2,-2,-4,3
42,34,1,-11,-5,-3,44,25
24,-9,23,-63,-13,0,-28,6
0,-67,9,68,8,-8,-16,12
-128,14,28,15,-6,-7,-22,-63
33,111,-95,-5,16,9,-12,-41
59,-13,27,-56,3,22,104,69
32,48,-2,89,22,7,43,43
-37,-43,-14,21,-5,-10,-58,-40
-60,-60,-48,-40,-22,-15,-102,-59
66,-32,14,-20,-5,0,22,16
20,-1,0,-3,4,6,23,29
-35,23,15,-25,-11,6,-2,16
-15,61,8,14,3,-4,-5,-18
60,-90,-11,14,9,-2,49,14
-47,-23,7,-1,-2,-5,-36,-17
-39,15,2,-2,7,15,29,20
6,-40,13,-68,-8,3,-1,8
13,127,-19,62,-1,-3,30,12
-30,-80,13,-49,-12,-16,-87,-41
45,15,16,17,-13,-13,-23,-15
16,-19,4,19,11,9,-2,21
-75,-23,-87,37,18,5,14,-1
42,3,7,5,3,8,3,0
19,24,17,-12,0,4,13,7
25,7,32,-22,-10,4,34,13
-1,9,1,-44,-22,-21,-28,-28
-128,-5,34,61,14,0,7,-51
-26,-68,-29,23,-8,-10,-27,-21
74,22,21,-106,-25,-8,28,30
64,94,62,42,-7,6,33,67
-64,-128,-128,57,38,7,27,0
12,11,-23,-26,-12,-12,-99,-56
-30,20,10,-36,-24,-20,-62,-32
25,-39,10,-25,-13,0,33,8
79,10,30,-2,11,17,31,53
37,45,41,-41,-12,-4,18,25
16,57,6,55,4,-9,-38,-25
-85,-51,-15,-10,6,3,13,-9
42,13,6,0,0,0,-54,-3
-15,7,-2,4,1,-1,30,12
70,-1,-11,-7,-9,-6,61,9
18,-11,10,-15,-9,1,20,22
-84,46,21,-33,-9,-4,-61,-28
10,-126,-23,54,14,7,56,43
-14,4,-1,23,6,9,29,3
-75,-8,-4,-25,-6,-12,-92,-85
10,6,-15,18,-4,-16,-53,-21
42,41,-27,-37,-9,-5,22,26
15,-17,28,25,-6,2,17,4
17,-17,-26,0,8,2,18,14
21,1,9,-60,-5,0,21,43
8,38,63,15,-11,2,-27,-7
48,72,-60,87,33,6,43,-12
17,-90,-55,-19,-9,2,-12,-10
-50,22,22,-69,-27,-1,4,4
-46,13,-15,52,22,-4,-17,-13
41,-29,-33,7,1,3,10,14
36,-27,18,-11,-3,-2,-5,3
-14,127,16,-32,-17,-5,-36,-27
-41,-128,53,-64,-24,-7,-3,-6
55,33,-40,48,12,1,16,8
-23,-62,-43,44,11,4,29,24
34,16,-1,-18,-5,-4,-35,6
-29,-10,9,-16,-14,-4,9,1
-18,-26,-25,-20,-2,-6,27,4
30,22,9,-9,-3,-14,-53,-38
-22,-3,5,-8,-10,-13,-80,-40
-85,15,27,-17,9,20,30,23
-22,33,-6,50,14,20,36,37
23,-33,-16,-6,-2,-5,97,-25
20,6,25,-52,-20,-14,-43,-22
24,15,39,18,8,10,-5,14
14,22,-67,43,18,7,36,13
42,-64,0,-19,-11,-15,-54,-26
-11,-16,16,-13,-1,4,15,6
50,40,28,-28,-16,6,7,37
-10,-2,26,37,3,-1,5,20
-94,-27,-43,20,13,-2,-19,-37
-125,-6,-60,-30,-12,-14,-41,-59
-11,-38,-9,-17,-7,1,0,-12
38,95,94,-106,-23,3,10,15
16,-36,-26,56,6,7,34,16
69,-54,-51,127,63,32,82,94
2,-11,27,-67,-28,-5,98,30
32,-33,-90,47,4,-42,-128,-111
-92,-2,32,-18,-20,-34,-90,-68
-8,28,23,-24,-8,-2,46,11
23,-57,23,-15,-1,16,51,25
15,127,55,-16,-18,2,3,17
86,-52,-14,23,16,4,40,28
-13,-128,-56,-6,10,10,15,22
-113,-6,-56,-21,-2,5,-4,-34
-16,-42,0,-17,-9,-1,-8,-24
85,-12,-40,1,1,4,-23,33
-34,121,3,-3,-4,-6,-6,-11
-15,-4,14,13,-3,-5,-49,-23
100,0,35,-23,-1,10,32,25
-25,5,9,39,6,-2,-24,0
-6,28,-2,-37,-8,-7,16,-4
2,24,21,10,-2,-7,5,-36
-128,-58,-38,4,1,-8,-56,-59
-13,-12,-29,-13,-4,-4,-35,-46
32,28,54,-53,-25,-3,12,8
41,-23,-38,71,19,10,19,22
44,88,-22,5,20,18,48,54
50,-128,-23,19,7,-6,13,19
-59,25,10,-53,-8,-8,-36,-16
-34,-11,92,-128,-54,-17,-39,-30
1,-82,-49,127,68,12,16,2
-8,4,-30,-51,-6,1,11,7
19,38,18,-59,-24,-6,4,13
-22,1,89,-47,-22,-6,-1,-23
47,16,-10,72,21,3,14,-4
35,19,-11,-16,-8,-5,-26,14
-102,-36,-34,-2,0,-5,-6,-23
-72,-48,15,-5,-11,-7,8,-58
58,44,47,-52,-24,-5,17,29
16,-25,-34,88,24,3,8,19
-7,-31,-18,4,-2,-2,5,4
-10,17,4,-9,-7,-7,-57,-28
-74,-34,10,1,7,12,56,-12
20,51,5,8,6,12,35,18
0,-89,6,-14,-5,-9,-21,-1
36,66,54,-81,-24,1,-11,-14
115,100,75,107,6,0,-15,48
-94,-33,-128,30,45,4,28,12
-128,-24,-24,-46,-22,-16,-91,-83
9,-42,1,-30,-23,-18,-44,-38
17,10,6,-24,-8,1,15,15
-63,4,23,-1,-6,9,32,6
39,21,-8,-26,1,8,50,31
99,14,40,-35,-2,9,31,39
48,31,60,-28,-27,-6,-20,-3
-36,-53,-69,127,55,10,-33,-16
-51,-34,-111,-18,9,-9,-16,-18
-64,16,-10,-32,-13,-12,-36,-36
9,-26,20,-32,-12,3,10,3
111,71,73,-54,-13,16,72,71
12,28,-38,107,36,9,8,-1
-94,-59,-30,-24,-12,-10,-69,-68
-17,46,5,-4,-6,-6,-72,-24
38,38,18,-34,-19,-12,88,24
35,26,24,-39,-20,2,58,-7
-19,12,-19,79,21,3,9,28
-64,-50,-42,10,-7,-7,-11,-30
-119,-26,-11,-21,-13,-15,-21,-18
12,9,39,-9,-3,0,10,19
58,66,-7,29,12,9,15,-2
19,-31,-14,15,6,8,-90,-41
41,59,58,-33,-6,4,27,15
38,-32,29,27,1,-7,6,-1
-15,10,-61,-5,7,-1,-11,4
-79,22,-32,-30,-9,-9,-21,-37
18,-74,18,-50,-32,-15,-58,-16
33,-48,43,104,40,10,24,9
28,31,-31,-3,17,16,54,27
-72,-30,4,8,-2,4,10,-5
59,0,41,-48,-14,3,52,49
29,-6,47,-12,-19,-8,4,12
-16,-8,-58,-22,-16,-13,-71,-18
-128,-33,-34,93,20,-10,-33,-90
-9,-32,-30,-12,7,4,-8,-39
3,-1,10,-29,-12,0,14,8
46,39,37,-32,-11,3,29,22
57,-47,28,36,11,6,-14,15
33,5,4,-13,5,10,25,47
-42,33,13,14,-3,-6,33,1
26,127,48,-10,-6,-6,-14,-9
-13,-128,-48,56,11,1,-22,9
-76,-27,-31,-18,-11,-10,-11,-22
84,36,8,-4,6,5,-59,-25
92,127,33,-8,3,5,75,46
-71,11,29,-22,1,9,74,43
-128,-45,50,-9,-20,-8,-49,-62
29,-48,-18,17,-1,-24,-98,-45
52,96,-50,-18,11,4,9,13
-20,-61,-11,-93,-18,1,-14,-1
17,32,70,-10,-13,19,41,56
75,9,-103,127,50,21,117,55
15,13,-10,-48,-10,-6,2,-15
-89,-31,0,-37,-19,-30,-128,-78
77,11,30,-20,-10,-2,9,-1
-10,-54,17,-33,-4,13,65,29
-28,4,27,14,-5,10,55,42
-30,33,-37,37,7,-8,54,18
-8,-92,-60,-32,-3,-3,-9,-9
-24,-1,-7,-16,2,-3,-73,-54
-12,47,21,7,-7,-9,-73,-33
-30,-84,16,-31,-9,-4,-29,-23
33,20,33,25,6,1,23,35
80,20,-51,-1,-3,0,34,46
21,-24,30,-67,-22,-4,1,-1
-16,30,2,56,9,-8,18,-3
42,-34,-68,4,16,7,-11,-18
-13,2,5,-10,-2,-1,-31,-8
-56,-57,2,-14,-5,2,24,20
-29,26,19,-25,-11,-5,46,-17
-11,7,28,-32,-15,3,20,37
-12,-41,4,55,2,-20,-65,-37
20,-97,-20,-21,-14,-15,-19,-31
13,40,-13,-9,-5,-5,-10,-23
-7,-31,4,-14,-2,7,30,20
6,31,18,19,15,17,36,29
4,15,23,6,6,8,47,30
26,4,0,-60,-13,-3,-55,-15
61,-3,86,-47,-39,-10,12,9
-58,-59,-61,127,85,3,-94,-60
56,33,-73,-42,10,-1,-7,24
-16,-20,-16,-33,-10,-2,24,29
-97,-10,23,-23,-15,5,127,29
5,-41,10,-23,-25,-7,-9,-8
-40,-10,-9,-12,-8,-13,-55,-50
5,-44,6,2,-2,-13,-68,-38
78,95,32,-14,-9,-6,-21,13
20,34,27,-33,-14,5,20,20
-21,-100,-30,110,34,17,39,21
28,29,-46,-6,2,8,24,28
-2,-22,47,-41,-17,-12,-3,-21
-41,-43,-22,31,7,3,-43,-26
2,14,-20,-4,-5,-5,3,10
4,-29,-32,-14,-3,3,-13,7
-54,0,16,-7,4,-2,-8,-18
1,-38,0,-22,-16,-13,12,-11
-8,1,5,6,0,1,6,3
32,22,24,-2,-1,12,23,-8
37,26,53,-77,-21,1,23,21
67,-32,124,38,-10,-7,0,16
-47,34,-128,26,53,4,-49,9
-64,-90,-61,-45,-20,-30,-68,-62
-105,-128,-13,-45,-21,-10,-22,-73
38,52,30,-25,-14,0,3,1
53,68,34,-10,1,9,-8,26
30,25,26,-42,-21,-1,64,39
47,-39,25,65,9,9,59,37
98,86,-64,2,8,-6,22,35
-24,-2,-4,1,6,-2,-73,-30
-124,-77,-10,-3,-3,0,-42,-23
-43,-9,0,4,-8,-5,3,-15
25,-59,-11,-8,-11,-14,8,-13
55,42,-1,8,8,15,34,20
44,29,9,-36,-11,9,-1,37
36,92,80,60,1,-6,103,15
-90,-128,-128,-59,-5,-14,-128,-95
-39,58,21,-12,-17,-32,-69,-64
5,34,16,25,-5,2,35,20
-31,-128,-7,9,3,8,12,26
-22,-25,-26,-7,1,-1,15,3
39,17,3,-5,0,1,11,1
44,9,29,-80,-25,-8,15,24
-15,115,100,-24,0,18,33,32
-7,-28,-37,127,33,-5,-4,-6
-20,-15,-39,-13,10,4,-32,5
-22,-19,-10,-35,-12,-3,-5,-1
-62,11,34,-11,-21,0,8,-29
50,-11,-2,-54,-8,-5,-5,-2
-7,-35,15,-73,-8,3,13,34
5,-40,-46,88,9,-11,-30,6
-46,2,-27,-20,-6,-9,-55,-85
-38,-34,-11,-11,-4,1,13,-11
41,48,4,-16,-11,1,8,0
54,56,37,-56,-16,9,23,31
-9,56,51,79,21,1,-12,16
-17,-93,-82,31,24,3,12,-4
-49,-13,-10,-14,-1,2,-26,-4
12,127,-60,-21,-9,2,60,29
6,-74,20,-20,-2,-2,30,-16
-28,1,28,6,-6,3,-73,-33
-1,29,7,22,-12,-27,-35,-11
-97,-57,-12,-9,-5,-9,-26,-6
-7,-10,-5,-4,-9,-13,-63,-39
-18,27,-5,-25,-6,1,17,6
6,-55,16,-8,-7,5,-14,5
23,-31,-9,33,6,-1,21,32
105,38,-2,-7,2,11,127,42
-3,117,33,-21,-4,-4,0,7
-124,-128,-50,8,-16,-21,-98,-57
51,24,-43,11,10,-2,-35,-9
-90,19,39,-49,-13,-1,-15,-34
8,16,-15,104,22,1,8,12
15,54,-5,1,5,6,24,21
-11,-13,21,-32,-14,0,9,-8
28,44,31,-84,-27,-3,4,10
62,61,88,46,4,6,12,29
26,-24,-128,33,33,5,28,35
-61,7,-2,-3,-7,-10,-32,-48
-88,2,-6,-44,-26,-24,-60,-51
-39,-12,8,-11,-13,-6,3,-12
26,0,24,-9,2,7,27,19
53,26,21,0,3,18,52,39
52,17,26,-15,-5,4,26,14
74,53,-20,48,-2,-20,-37,-12
-128,-128,-11,-1,-5,-15,-127,-63
-128,27,7,0,-5,-9,-10,-73
30,-8,13,-4,-1,7,19,-1
81,3,-28,14,9,12,25,26
99,1,29,-18,-11,1,16,36
116,37,-17,35,19,22,103,85
-96,-66,-27,7,-1,-11,12,21
-93,-20,2,-4,1,-17,-95,-69
-58,-4,31,-39,-23,-13,-128,-78
66,39,78,-21,-17,14,100,30
42,-79,-95,127,51,4,43,32
-20,127,-28,-40,-8,-6,35,14
-60,-61,5,-43,-29,-22,-93,-48
14,-51,22,-68,-34,-8,-32,-24
30,-5,-2,127,52,20,16,18
21,4,-13,-28,1,9,30,24
-12,66,28,-39,-18,-5,10,11
-45,-128,0,-15,-33,-19,-16,-20
14,19,-59,8,16,6,11,8
20,37,-13,16,-1,4,5,3
13,20,13,-29,-12,8,7,11
-122,19,31,3,-6,-4,53,0
-34,-17,-40,-15,7,-3,-1,-12
119,56,30,-32,9,11,-60,-12
-41,-33,9,24,-3,-10,-8,-15
-84,46,-40,23,-4,-16,-28,-32
-57,-49,6,-9,-10,-8,-32,-34
36,59,25,-21,-7,1,12,9
9,-62,12,5,1,8,20,16
-6,30,-20,5,13,11,24,22
25,15,-9,-11,2,6,-7,22
49,-38,18,-39,-8,-1,93,33
29,12,33,69,-8,-20,-7,9
-99,-21,-83,13,11,-12,-31,-35
-86,10,0,-24,-9,-11,-128,-70
-71,52,2,-32,-13,-4,24,-36
50,-7,33,-11,-7,11,23,21
77,-49,-45,75,27,9,24,24
28,100,3,-48,-15,0,4,21
51,6,9,73,16,6,5,10
36,59,4,-19,0,1,31,21
-7,-24,-24,-13,5,3,18,9
-59,-21,-12,-12,-15,-8,-31,-69
-15,112,41,-26,-9,-10,-73,-28
-12,-128,30,-85,-27,-5,13,16
32,-24,-13,117,20,3,21,10
8,-50,-59,12,27,13,19,3
41,78,-20,-18,9,5,17,8
78,38,24,-5,6,13,26,36
-42,28,22,-47,-16,3,-16,28
-128,3,35,12,-15,-22,-7,-51
-32,29,-68,-4,-4,-21,-95,-84
-15,10,-1,-15,-9,-8,-14,-11
50,-9,2,-6,-2,8,41,24
35,13,9,-3,0,13,24,25
41,16,6,-1,-2,-3,10,21
13,-1,-9,-2,-2,-12,-19,-12
-11,-4,-3,-1,3,4,-12,-17
-20,6,1,-12,-7,-4,-14,-7
-15,0,33,-2,12,23,37,35
29,33,-22,82,21,6,50,28
63,-88,6,-30,-14,-11,-38,-17
-51,-24,4,22,6,-20,-118,-44
-33,-15,-27,-4,6,-3,30,-10
-128,-23,-9,-42,-36,-13,40,-13
38,20,5,45,19,5,17,16
70,-14,-10,-35,-1,8,16,37
-32,-18,1,-40,-5,7,7,-21
-8,22,-5,27,14,15,28,-5
-14,8,34,-6,-2,-7,-59,-24
23,-4,-25,4,-4,-10,-26,-12
-13,-45,14,-53,-14,-9,-71,-30
7,99,11,116,15,-2,4,12
8,-8,-55,-44,-5,7,29,19
59,-18,11,-16,-1,14,47,44
-99,-1,13,-23,-14,-2,1,-12
-73,-101,29,8,0,-10,-39,-28
-90,24,-23,33,4,-12,-12,-22
35,22,15,-19,11,5,6,2
56,42,0,8,-7,0,8,15
23,62,7,10,-3,0,-17,6
-96,32,2,-30,-16,-7,37,1
17,-101,32,-23,-19,-7,2,-9
54,14,-14,60,23,12,25,11
-10,-25,-26,38,10,-2,-74,-29
-110,-28,-6,-24,-18,-24,-51,-36
22,-14,10,-15,-4,-6,-21,1
68,51,1,-16,-2,0,23,27
41,35,6,5,2,4,86,13
17,43,32,-4,-7,-1,-13,23
-21,8,6,-2,3,2,-19,0
-42,-25,-40,39,21,8,4,8
37,23,7,-49,-19,-3,2,-12
1,-57,24,40,4,-7,0,-10
5,5,-36,14,5,-6,-19,-13
-13,20,11,-20,-4,2,6,9
-60,-15,57,-64,-19,2,23,3
61,-14,-34,119,13,2,22,39
127,5,-20,21,27,9,44,37
-48,-58,-22,-39,-18,-20,-115,-103
-128,-25,8,-28,-23,-23,-77,-75
40,28,21,-26,-10,2,14,-13
36,-12,44,25,7,7,58,14
31,4,-49,49,20,9,40,45
8,-6,24,-28,-6,1,14,14
-3,84,5,45,11,4,-3,-11
44,29,-19,-15,9,9,-2,15
9,1,5,-10,-6,-7,14,24
-4,-11,-15,-41,-14,-9,-9,13
-55,-103,-13,-18,-23,-29,-67,-67
-97,-45,-24,23,13,0,-33,-44
63,-1,23,9,10,13,21,15
11,5,13,-5,1,4,35,14
-7,22,-10,-7,-6,-6,-57,6
63,51,36,-21,-14,-4,27,30
-18,-57,20,17,-3,-5,58,11
-128,-14,-79,40,16,-5,-17,-38
-59,-18,5,-12,-2,0,9,-10
27,11,8,-19,-14,-6,-5,-10
39,16,3,-56,3,8,-8,0
18,-85,-9,30,7,9,18,19
58,7,53,-46,-15,0,20,26
-6,-47,-41,80,16,-3,-4,11
-8,40,-5,-1,-1,-8,-31,2
-68,-44,16,-37,-7,-2,-59,-58
-43,-4,21,-24,-13,-5,0,-18
7,63,31,-18,-9,3,9,-2
35,57,-51,43,27,11,32,26
24,59,6,-13,-1,8,26,29
8,-17,27,51,15,2,-8,-9
84,31,-40,-23,3,5,-23,13
-51,0,7,-9,-10,-6,87,15
-68,5,18,-15,-13,-5,-4,-13
-49,26,43,-39,-20,-15,-10,-21
53,39,-26,77,8,-14,-88,-16
25,-40,-18,-12,-8,-6,-13,-3
35,11,20,-67,-23,-6,-9,-11
75,-37,0,81,26,20,46,47
-45,51,37,7,6,4,31,22
-64,105,-20,-14,3,5,-72,-36
64,6,0,-23,-14,-10,2,-1
-115,-31,2,-17,-15,-16,10,-43
0,10,0,4,4,3,-24,3
45,25,-3,-1,5,3,11,15
43,127,15,-21,-14,-3,33,10
10,-128,12,20,13,13,3,14
9,0,-40,58,21,11,-5,4
100,127,0,-3,4,-5,-17,29
-4,-47,8,-16,-7,-17,-17,-30
-70,-37,7,-51,-22,-6,-31,-25
-66,2,-1,-32,-16,1,-24,-45
-39,44,42,51,7,4,28,3
26,-8,-23,12,9,5,35,10
94,21,-12,4,6,6,28,40
17,30,13,-23,-8,-3,10,33
-128,-99,-7,5,-3,-3,7,-23
-107,1,19,-53,-26,-19,-29,-37
21,-52,-11,78,10,-10,-55,-16
19,12,-14,-13,-1,-5,-43,-32
22,57,28,4,8,9,-20,-10
115,41,24,-68,-15,-9,89,63
116,-14,33,50,-3,17,34,80
-66,68,-105,-21,24,5,40,-17
-128,-100,-55,-56,-31,-33,-126,-128
-2,21,27,-10,-7,-11,-14,-28
85,64,29,-14,-1,12,20,25
42,5,16,22,-6,-12,-22,13
23,27,7,23,-2,2,15,27
-7,-73,-28,-71,-17,1,42,26
-21,13,30,23,-4,-5,8,-5
46,-43,-43,100,41,11,-19,5
23,11,25,-12,-1,4,-18,-3
-61,33,-7,0,-2,0,-31,-12
-74,-128,-31,-46,-22,-19,-22,-25
-31,24,-6,5,-9,-11,23,-19
41,8,14,2,-10,-3,-6,-3
84,1,6,18,9,8,13,20
-62,-27,1,-7,11,10,33,29
-82,-5,-5,-8,2,2,14,16
2,-22,-12,-13,-10,-6,30,-11
-67,-4,21,-33,-19,-7,-78,-31
79,33,37,16,-8,-7,-29,-3
-20,57,-35,68,19,-9,13,-4
-48,-55,-35,-35,-13,4,-16,-2
-16,6,-9,40,6,-5,-18,-13
50,77,59,-32,-13,5,51,36
74,3,-23,61,25,9,-11,5
16,0,-48,-23,14,-1,6,19
-117,92,10,-25,-10,-11,-54,-52
19,11,21,-7,-8,4,25,8
39,4,-18,-31,-9,2,62,34
-10,11,-7,32,8,3,-3,11
-66,-70,18,-8,1,3,2,-11
-59,-28,-37,-39,-17,-12,2,-9
113,99,-12,31,2,1,-1,-2
-31,-44,-12,-23,-5,-8,-55,-5
-3,-10,21,70,15,-12,-10,-20
11,-7,-9,-15,-8,-4,-26,-17
-15,16,-6,-13,-5,0,-46,-15
26,23,-2,32,13,7,41,8
59,16,14,-8,5,13,34,42
2,6,8,-7,-6,-4,-5,18
-29,-40,2,-12,-5,-6,32,-11
-84,-19,-7,-17,-12,-10,-32,-52
27,43,5,33,24,19,33,24
43,17,-13,12,0,-4,11,19
-82,49,-4,-15,-11,-17,-109,-64
34,-49,-6,-35,-24,-21,-59,-47
66,13,17,17,11,9,3,22
23,21,-15,17,9,4,7,36
-75,84,26,6,10,9,47,23
-4,14,87,4,-17,-3,54,0
35,-1,-62,-16,-1,-13,-40,-23
-14,-59,-122,107,23,7,-1,-21
4,-94,-13,-17,-2,2,6,6
-8,50,8,-27,-9,-2,18,29
-51,25,30,-28,-12,5,18,7
-76,-69,15,-14,-16,-4,-2,-48
-56,32,1,-18,-12,-17,-50,-16
18,4,-1,-20,-9,-12,-24,-16
114,64,-3,-38,2,18,17,25
55,-42,30,8,8,17,72,57
-72,-43,-33,66,24,-2,7,24
-2,-20,-27,-35,-21,-29,-85,-104
8,-65,2,-12,-10,-13,-77,-43
10,35,16,-9,-2,7,18,17
11,-22,7,-5,-5,9,10,24
94,19,-32,-32,5,20,77,57
-53,-25,10,-22,-17,-9,13,4
-128,-2,11,96,23,-4,-95,-47
-49,-49,8,-10,2,-4,-21,-35
49,-24,-27,-28,-18,-3,30,6
0,37,-14,5,-7,-16,11,-5
7,0,12,-16,-10,-16,-76,-16
41,59,37,-8,-7,10,9,8
60,-128,-31,-40,11,11,19,34
-9,-22,33,68,23,8,22,29
-48,41,-68,32,5,-3,-8,-14
15,-18,-2,-22,-10,-5,-17,-37
41,-86,-24,-9,-2,3,16,8
7,12,3,-14,-16,-4,-11,3
62,41,66,-63,-37,-2,8,25
-113,21,14,113,28,-6,-18,-15
-63,-6,-35,2,24,4,-15,-21
15,-41,-3,-30,-11,-5,-8,-19
48,54,22,-7,-7,-6,-8,10
68,-56,-18,-10,-7,3,30,23
-8,63,15,-5,-1,5,15,10
-52,-11,0,-9,-9,-8,-90,-17
51,88,55,-69,-20,12,72,68
77,-21,65,50,-16,-4,110,33
-1,-62,-128,115,63,-12,-55,-35
-128,-22,-14,-93,-26,-32,-128,-128
-11,1,12,-39,-12,-7,7,-20
104,36,49,-11,3,18,31,17
-45,19,7,-4,-3,3,47,28
-59,1,6,3,-3,-1,23,23
71,-6,-3,5,-5,2,19,17
88,80,15,3,-4,5,29,47
-7,-90,4,2,7,4,9,3
-41,-84,-41,42,2,-20,-47,-44
-56,-29,-9,3,-16,-25,-84,-47
-18,-34,-41,1,-8,-6,-9,-6
69,54,14,3,6,16,2,39
33,-2,70,-66,-13,19,90,31
-5,28,-8,118,12,-10,46,-4
-128,-128,-94,28,11,-14,-107,-96
-21,17,1,-44,-19,-14,-18,-12
49,49,8,1,-1,5,11,3
27,-31,-13,-3,4,5,17,20
79,32,34,2,2,5,14,31
37,65,35,-9,-11,1,14,14
18,-19,34,-94,-28,13,63,47
2,14,-18,127,71,24,21,23
-111,-128,-120,-18,-6,-31,-87,-53
-58,88,-4,-36,-16,-20,-78,-76
13,43,29,-16,-6,4,3,-1
19,-44,0,-17,-11,3,25,14
17,-5,12,-4,-5,2,4,16
-9,7,-2,-10,-12,-9,36,8
70,50,50,21,9,17,64,76
54,1,-13,-7,4,-8,25,36
-128,-63,-4,13,-6,-16,-90,-94
-35,-40,-42,-2,-7,-18,-87,-59
-38,65,17,3,11,13,35,30
13,43,-5,39,0,-9,-19,23
-43,-16,2,-16,-14,-15,-18,-61
-56,-19,17,-16,-5,0,28,-22
14,22,2,-12,3,4,-4,10
106,-6,47,-28,2,15,29,65
62,127,29,15,-7,-7,15,24
-21,-39,-90,16,7,-6,-85,-64
-83,7,-4,41,4,-12,-42,-38
37,3,7,9,7,6,11,14
20,12,35,-55,-13,4,26,21
23,-2,7,54,5,2,30,11
26,39,-14,-13,-3,-3,7,11
30,51,22,5,-4,-4,13,8
-44,-1,37,-54,-16,3,9,22
-38,-76,-2,64,-2,-12,-19,-18
6,-35,-34,-28,-2,0,-13,-24
41,85,16,-19,-13,-6,-8,-10
33,38,-47,9,13,10,17,18
-101,-13,23,-12,-3,-9,0,-23
27,-22,-7,1,-8,-8,10,27
89,-68,12,-8,-7,-7,17,32
-86,-20,-20,-20,-15,-15,-41,-58
-41,22,11,-3,-7,-12,-108,-58
14,19,20,-43,-8,5,13,23
24,23,40,55,26,30,66,75
-20,-29,-35,12,4,-10,49,-7
-79,-2,-25,-12,-11,-11,-9,-44
33,-36,3,-12,-8,-7,-73,-25
25,-11,10,3,-2,1,16,17
9,11,2,-12,-15,-4,5,4
6,10,14,-47,-7,3,12,15
55,10,49,70,30,23,54,24
44,-66,-97,50,28,10,8,9
-107,-11,-10,-35,-18,-23,-44,-16
-41,-1,9,-20,-20,-16,-32,-41
35,14,13,-6,-12,-5,-12,-18
-18,-43,13,-18,-8,1,16,-8
-33,9,16,-72,-7,5,-9,0
12,-86,5,103,17,5,9,6
78,109,11,92,43,30,48,38
-68,-128,-42,12,8,4,31,22
-85,-31,-18,-21,-19,-19,-38,-7
-3,-62,4,-40,-30,-25,-43,-45
5,70,-8,-25,-13,-4,-18,-22
101,-32,41,-1,2,16,23,38
31,-23,-25,39,20,-2,-8,8
-60,12,-5,-14,-2,-7,-28,-19
-109,-65,8,-5,-12,-15,-17,-54
-19,26,5,0,-2,8,11,4
1,6,4,-4,-3,2,-7,0
105,-7,21,11,2,-5,9,14
-5,-16,-21,-17,9,4,15,12
-22,-13,-8,-30,-29,-23,4,-8
109,38,51,-19,-4,24,71,55
16,34,-43,105,50,12,28,45
-128,-128,-34,8,7,-10,-98,-64
-73,0,10,-23,-21,-23,-43,-68
14,8,21,10,-11,-9,-2,-22
54,14,4,4,5,9,35,29
72,80,57,-55,-12,5,8,14
80,23,-31,-20,-6,3,31,38
-2,-23,-61,86,37,5,24,41
-128,19,-6,-8,-6,-7,-22,-32
-37,-76,14,-14,-12,-11,-36,-40
8,-35,-16,-21,-14,-2,2,-10
-17,69,8,-14,-6,1,8,-1
55,25,21,-1,5,1,10,16
83,0,7,1,2,1,-11,16
-37,-12,-6,-30,-11,-5,19,18
19,20,38,43,7,2,52,16
88,59,11,29,17,18,3,50
-120,-14,-40,-40,-9,-4,19,-11
-107,8,-23,25,-9,-19,-6,-87
-28,24,15,-11,-11,-13,-100,-60
-2,19,25,-21,-14,-11,-75,-27
25,1,13,16,-1,1,28,26
-31,-74,1,9,8,10,5,-23
39,38,20,25,19,8,22,24
96,63,-24,1,12,9,17,44
14,-31,-7,-31,-13,1,29,26
19,-6,13,30,0,2,36,15
50,44,25,-23,-10,-11,-8,8
-109,-1,-9,-13,-7,-10,-16,-16
-36,-8,-7,39,1,-5,-20,-29
-42,-54,-20,10,3,-3,-14,-43
8,-66,-15,-16,-7,-4,-9,0
13,69,26,-7,-8,-6,-10,2
3,-121,-2,-7,1,-4,1,4
8,15,7,0,6,7,-16,9
19,32,9,-10,0,6,21,5
51,35,55,-48,-16,1,52,33
66,17,6,91,26,24,84,40
-79,-6,-65,17,15,-3,-19,13
-114,-102,-63,-36,-27,-46,-128,-118
-91,-32,-11,-6,-22,-21,-85,-94
24,10,20,-9,-2,-4,-13,-9
98,77,20,5,11,26,35,44
87,21,34,-6,4,22,80,82
-24,11,13,-22,-9,-11,21,32
-82,59,11,62,13,-17,-53,-48
-11,20,-20,-15,-6,-4,-19,-25
-3,-68,6,-7,-3,6,9,9
28,-62,-46,-10,-5,4,34,9
32,46,7,-23,-10,-6,0,7
-24,11,17,34,8,2,-9,17
-12,-18,-1,-7,11,-6,16,0
18,-15,-13,-5,-2,1,-17,-19
-12,-24,-12,-44,-9,-5,-9,2
71,28,59,-35,-16,8,47,43
-31,-34,-92,110,23,0,41,-4
-18,-53,-18,-43,-12,-21,-124,-72
-33,-23,19,27,-7,-18,-54,-27
-19,-8,-49,-8,2,5,18,5
-98,-128,-50,-24,-1,-1,15,-9
18,27,11,-15,-5,5,17,10
37,17,19,-34,-11,4,22,16
69,83,40,36,11,16,24,23
58,45,5,0,14,13,23,31
-41,-39,14,-2,-6,-16,-24,-9
-74,-36,56,2,-13,-4,-20,-14
-4,-4,-75,-11,-1,-2,-8,6
38,-12,-29,-30,-12,-32,38,-8
38,18,-15,-62,-24,-15,-56,-28
34,-27,2,19,-3,10,46,23
-42,59,-6,38,26,15,30,5
-35,-75,-9,-19,-9,-2,-53,-27
1,38,9,-12,-10,-9,-12,-9
46,-57,-7,-17,-7,4,10,3
90,40,5,-1,-1,-1,-53,21
18,6,3,-9,-10,-8,-6,6
-73,22,5,3,1,-5,-3,-28
1,-8,-6,-8,-1,8,30,-5
12,-1,-4,-7,-5,3,22,10
-4,41,30,-6,-18,-17,-11,3
37,-24,0,-15,11,-1,3,9
67,-47,-4,82,13,2,3,13
-26,10,-60,5,14,7,15,16
-45,-12,-17,-12,-8,-3,-2,-10
-46,-56,16,-11,-14,-8,-21,-34
16,75,-4,-40,-8,-9,-16,-14
58,1,32,-13,-9,-3,3,-12
-51,0,-96,10,5,4,-22,-2
-109,-45,33,-25,-1,3,29,23
-10,37,-18,55,7,-16,3,-49
46,113,23,-19,-2,2,-42,-5
50,13,13,-44,-21,-8,-3,1
50,-53,-36,46,2,8,2,19
-29,-5,-33,9,17,7,12,27
-93,21,13,-10,-5,3,0,-24
-3,-4,12,-8,-3,3,20,-6
23,37,31,-57,-24,-20,8,11
57,34,48,-7,-21,-14,18,2
6,91,-97,72,20,-4,-74,-7
-9,-37,-34,-4,6,-3,-88,-21
-62,-17,-3,0,-1,-4,53,-15
-17,-27,28,-1,-1,11,70,1
-37,36,-4,-14,-3,4,14,-13
4,-12,-8,-4,-10,-9,-22,-1
-16,0,3,-1,-4,-4,-4,2
-18,-26,2,0,3,1,3,2
85,74,11,-19,3,10,10,35
110,-30,38,-41,-12,14,24,53
17,34,-34,95,15,-26,-11,-9
-128,-100,-45,3,0,-17,-65,-91
-48,-99,-40,-24,-13,-10,-28,-38
49,85,20,-27,-3,10,12,10
30,70,38,5,4,6,17,15
46,52,1,-12,-3,8,33,24
14,-71,7,-12,-6,-1,9,4
-32,57,-28,-20,-6,-7,-1,3
0,47,13,-6,0,0,-3,-3
33,-55,44,10,2,5,7,19
-53,-9,-24,53,7,-2,-41,-9
-46,-9,-26,-28,-12,-5,10,-16
15,-15,-5,10,9,-3,25,-20
37,14,11,-22,2,5,-6,-8
22,16,10,20,-2,2,-19,12
-26,-31,-6,6,-7,-10,8,16
6,-18,-4,-39,-25,-16,-10,-18
0,79,36,12,-9,-9,-43,-44
8,-47,-26,19,16,6,-9,4
-2,-108,-62,-13,-1,5,16,16
-36,32,-13,-14,-7,0,-7,-6
-61,19,7,-9,-7,2,-2,-17
20,66,97,-98,-33,2,51,9
74,35,-20,127,81,28,44,52
58,-10,-40,-42,12,-7,-6,22
-65,-17,-2,-25,-23,-23,-88,-66
-75,-38,8,-29,-21,-17,-69,-49
-75,-3,20,-25,-9,-4,11,-33
97,35,24,-32,-19,2,30,17
76,3,-7,60,37,33,21,61
-61,-84,-75,62,19,-1,73,28
-1,8,-2,-43,-13,-14,-37,-44
-123,-6,-26,6,-13,-16,-76,-47
17,-9,3,-20,-2,5,14,11
26,50,4,14,2,6,17,13
36,-63,10,4,-1,2,-3,13
90,38,22,-59,-18,3,18,26
48,67,-44,78,18,1,-16,15
-125,-6,-41,-7,6,-10,18,-26
16,-5,12,-13,-13,-12,-33,-14
0,7,18,-8,-1,-4,2,-1
-13,14,14,-1,4,5,3,3
82,27,12,0,2,4,4,-6
-4,-49,19,-31,-11,10,23,31
-113,-20,-11,40,-8,-15,22,-1
39,-26,-16,-16,1,-12,-49,-12
-36,-4,-18,11,8,0,-4,-10
17,-20,5,-8,-2,-1,-5,1
3,23,10,-13,-6,5,12,-3
22,-4,-8,4,2,4,21,9
6,8,11,-2,-9,-5,-7,6
-2,52,14,-59,-16,-2,-36,14
127,-43,2,59,28,8,19,43
30,-78,-87,-15,7,-3,30,-10
-128,44,-1,-14,-19,-15,-44,-73
-16,-112,33,-68,-19,-16,-32,-23
26,-13,-16,59,10,5,-26,-1
44,18,-31,-3,5,9,29,19
-2,5,18,-16,-1,1,12,21
-11,74,18,12,-2,1,2,8
21,40,27,-20,-6,4,3,17
-4,-15,16,10,9,8,17,26
-2,9,-20,-7,1,-4,-13,-9
-47,27,16,-6,-6,-2,-6,-22
-23,-60,-18,28,0,-5,6,4
7,-40,-19,-12,-11,-17,-10,11
0,21,-40,6,-5,-11,-17,-22
-14,-46,-7,-26,-8,-6,-38,-27
1,-15,5,25,5,-2,-29,-15
20,47,13,-2,3,5,18,15
26,34,28,-31,-9,0,-4,22
30,-128,8,-6,4,11,62,29
16,9,-45,2,-13,-13,4,-26
-78,24,12,-39,10,-2,-18,-23
-30,8,1,26,2,1,-13,11
-11,-21,-9,5,-6,-8,-22,4
-24,-22,0,-25,-12,-6,7,3
40,-44,14,-17,-15,-3,3,-6
15,34,15,32,6,0,-14,-18
-6,28,14,-56,-16,-4,-1,-15
21,10,-52,105,38,11,19,12
14,-63,-2,-1,4,11,15,25
17,46,15,-24,-18,-15,-55,-35
0,-37,-18,-17,2,-8,-33,-14
14,-4,-6,-6,-10,-1,16,11
-9,-23,29,0,-2,4,21,7
33,9,-29,35,13,0,7,2
44,3,20,-63,-6,7,16,28
-77,-61,-36,69,11,10,-4,41
-47,3,-23,7,7,-5,71,-29
-35,-63,-4,-13,-10,-12,-54,-44
25,127,28,-15,-7,0,-5,10
67,40,8,-12,-3,0,-4,12
-85,-48,2,-11,-11,-9,-57,-48
17,-5,6,-25,-12,-1,-8,-4
4,120,14,12,2,13,28,17
43,-84,11,35,16,16,57,38
57,29,-12,-3,11,8,37,37
-6,-113,-38,-12,-10,-22,-56,-37
-56,2,3,-8,-10,-16,-46,-36
-49,-2,7,-5,-5,3,-9,-15
12,-14,-8,0,-2,1,19,-2
-41,7,-1,-5,-5,1,5,-14
-2,31,50,-75,-23,0,0,1
59,32,44,68,20,14,-14,23
110,-46,-91,38,33,9,81,35
-128,29,-38,10,-6,-12,-22,-37
-67,-75,17,-26,-7,-5,-25,11
67,62,45,-69,-29,-7,-14,-26
-13,29,-42,48,14,-3,-10,-27
31,29,-3,7,8,8,11,17
33,7,23,-7,4,5,6,10
-3,10,-1,-7,-8,-8,-23,-10
-4,55,9,-17,-8,-9,-10,-6
12,13,34,-47,-15,4,17,8
-62,37,33,62,20,5,1,-1
38,-40,-53,-23,10,5,-4,6
-60,40,-18,-8,-4,-3,2,-13
-15,4,22,-25,-9,-2,4,-11
-23,-11,12,34,-2,-2,2,-5
-10,3,-15,-51,-10,-2,-1,-12
53,26,6,74,22,14,21,22
-14,5,0,16,-4,-11,-31,0
-53,-18,-6,-14,-4,-13,-12,-23
38,-63,-27,-2,2,-1,-7,9
58,122,19,-8,-6,-5,10,10
-43,-4,6,-12,2,5,-14,7
-3,-19,-6,-26,-16,-10,-6,-28
59,43,12,11,3,5,5,6
-44,9,62,-52,-18,-7,-18,-15
-127,45,-10,72,32,22,53,14
25,-108,-60,-8,9,-1,20,13
4,-17,-38,-39,-9,-12,-58,-23
-5,22,35,-16,-20,-22,-88,-34
5,19,18,-11,-6,3,20,11
21,7,22,-6,0,10,31,22
19,4,-16,-62,-8,8,31,17
52,43,29,-27,-24,9,26,35
-75,-57,0,127,56,7,26,4
-48,127,-40,-25,13,-6,-30,-17
23,-83,-4,-5,-12,-10,-8,-12
-29,32,9,-22,-13,-3,-19,-6
27,-74,21,-17,-6,0,16,-4
-12,-29,-17,-13,-10,-19,-7,-14
-2,-5,0,-1,-2,-4,-10,-2
15,35,9,-9,-5,1,-2,4
18,62,61,7,-8,14,37,35
14,11,-90,65,28,-3,9,13
-84,-128,-23,-25,-8,-8,-31,-38
-54,-12,19,-6,-11,-12,-46,-55
19,-13,-10,-7,-5,-6,-7,0
30,12,12,-1,-2,1,6,2
25,15,25,0,3,7,23,26
49,-12,-17,-22,-7,-3,27,23
-83,-51,11,-71,-19,1,14,1
-80,-71,-22,127,53,-2,-12,-18
21,54,-23,-36,8,1,-23,-21
26,12,12,-18,-6,-3,-43,-3
17,30,9,-17,-11,-12,42,11
-31,-64,20,-35,-14,-6,51,11
17,0,21,0,-14,-5,-17,-19
39,17,-42,0,10,2,-12,-14
5,12,-8,11,14,5,27,29
-31,-6,39,-55,-6,6,11,7
15,16,9,56,4,2,-26,-16
-13,35,-15,-10,5,-2,-40,-3
-70,4,5,-16,-8,-6,-24,-35
27,-12,46,-29,-5,-2,9,-2
14,33,-20,17,-1,-5,17,12
32,-49,10,-21,5,2,17,21
-3,-16,-23,-24,-6,-4,2,9
-18,23,7,30,6,-1,8,-4
-43,2,-9,-24,-13,-7,3,-19
-39,25,28,5,10,17,-5,12
29,-23,7,-13,-4,-5,4,12
10,-30,2,-1,-12,-13,-31,-25
-8,-28,-10,-7,-2,-4,-12,-12
14,25,9,0,3,2,-5,3
29,56,26,-11,0,13,-11,27
23,25,-6,27,18,15,76,35
52,-29,11,-8,-14,-21,16,3
-128,-128,-101,-22,-19,-24,-88,-76
-51,16,12,-10,-4,-4,-33,-42
-5,127,12,-2,9,15,16,44
102,18,-4,20,8,-2,20,52
-79,11,-29,11,5,-6,7,-31
6,-82,-8,-17,-14,-7,-13,-21
19,49,22,-36,-18,-1,-16,-2
33,-1,87,-8,-27,5,25,20
29,8,-16,127,70,18,29,26
-18,2,-71,-72,-4,0,13,16
-25,-99,25,0,-9,-5,-11,1
86,104,0,39,16,-2,-39,2
-26,3,41,-7,-9,-15,-26,-23
-87,-76,-28,-22,-20,-16,-10,-18
-34,6,-11,-24,-13,-4,-4,-18
36,4,44,-12,-1,3,14,8
25,24,55,-7,0,9,-7,17
3,61,-54,-3,-6,4,36,13
1,-128,-52,3,1,-5,-4,-12
-17,22,1,33,12,-9,-28,-14
-61,35,10,14,7,-2,-8,-15
-22,-32,19,2,6,6,-7,-12
37,20,25,-3,3,4,-5,19
0,-13,-31,-21,-12,-5,15,-6
55,-14,58,-2,-6,-2,-7,-5
35,25,34,1,0,2,-7,8
-14,35,-119,-12,-12,-10,36,2
-21,-68,-16,-29,-17,-10,25,13
3,-4,38,22,2,-5,-14,20
-42,24,-7,-11,0,-6,-42,-9
-95,-24,23,6,0,-5,-14,-87
18,-5,7,-11,-3,-7,-12,2
1,7,34,-20,-8,1,16,10
35,51,54,-32,2,6,25,28
23,-10,-8,59,4,4,31,23
57,31,-25,7,8,16,30,28
-37,-72,-34,39,1,-14,-4,-8
-58,-91,-27,-8,6,-9,-83,-50
12,32,32,-15,-6,-11,-27,-17
12,60,1,-42,-18,-6,49,-1
-2,94,63,-4,-7,6,17,9
13,-75,-21,56,14,8,17,20
38,-25,-56,-14,-7,-3,-10,6
4,-19,-1,-22,-12,-5,11,9
-128,42,47,4,0,-3,30,-10
-9,27,-7,1,4,-3,-61,-42
-32,-64,-15,-30,-4,4,-29,-21
105,83,68,10,-3,0,36,44
4,6,-40,71,28,4,-1,16
-30,-128,-11,-1,-6,-9,15,11
36,2,-38,-28,-5,-1,6,-11
-37,23,32,-19,-12,-15,-30,-29
3,35,-28,-15,-11,-4,-13,-24
7,-22,25,-12,-8,-4,-11,-3
-24,-5,-22,10,9,-1,0,8
3,22,8,-1,7,8,6,15
46,45,17,3,9,2,33,20
10,36,35,4,-3,-8,17,11
-89,-128,-47,-43,-14,-3,-5,-36
-7,27,-12,17,1,3,-7,-8
-4,54,-11,27,7,4,-4,1
15,22,44,-32,0,4,32,19
55,12,-13,24,-7,-5,-16,-3
22,-23,-42,-16,-9,-4,1,9
-74,61,71,8,16,-4,-43,-31
6,5,-36,43,13,-8,-35,-14
54,-15,-11,2,15,24,41,15
14,46,37,3,-2,5,22,35
-18,-29,0,-24,-11,-14,9,11
-34,-15,-4,6,-13,-19,-20,-32
-20,7,23,-41,-21,-3,-8,-9
2,12,26,-16,-4,-1,-13,-16
27,-37,-17,36,16,9,12,9
40,25,-3,-5,2,10,23,39
57,78,78,25,0,7,46,45
-12,-52,-89,5,-2,-13,-13,-12
-71,-18,-14,-26,-2,-16,-55,-68
-26,3,15,-22,-9,-10,-56,-27
-10,57,11,-6,-3,0,17,15
28,83,20,20,0,7,27,34
53,-128,0,-12,-7,-4,25,-16
-91,92,-34,-15,-8,-11,-35,-28
-34,41,11,-15,-10,-2,20,9
52,33,63,-3,-6,6,30,42
-44,-128,-62,27,14,-5,-13,8
-3,-63,-36,34,-8,-11,-23,-43
38,57,-19,-30,-10,-10,-3,-17
-22,-36,0,16,-5,-6,-15,-6
-66,16,10,-23,-1,3,4,-19
-32,-34,9,-1,-2,-1,-24,-20
43,30,27,-7,3,6,-25,15
36,82,5,2,-1,0,18,13
9,-43,19,37,2,2,50,17
-16,23,-19,-34,-6,-1,1,-4
-17,0,-63,14,2,4,-40,-10
38,-12,25,-9,-5,-4,-23,-4
59,23,19,-16,0,4,14,10
-80,-13,15,34,-3,5,20,2
-53,19,-16,-64,-9,-10,17,16
58,-47,-31,59,1,-9,-30,-33
-7,-22,-25,23,0,-4,1,-10
25,72,32,-91,-20,3,23,20
29,-7,38,44,9,16,11,24
37,6,-55,13,21,1,30,27
-35,-10,25,-21,-18,-11,-31,-34
-59,-103,-42,-22,-14,-12,-72,-52
-71,0,2,-20,-17,-10,-18,-24
32,10,2,-12,1,7,22,37
24,62,15,10,9,-8,50,17
33,-31,11,-2,-1,-5,-49,-21
-43,-17,9,-6,-13,-12,6,2
-19,29,13,-5,-4,8,15,3
0,-128,-22,16,10,2,13,-12
-59,82,9,-6,-5,3,-31,-4
-14,-93,8,-75,-21,0,-4,-27
124,106,34,97,15,19,10,42
55,-20,-92,-14,11,-5,45,28
-99,5,14,-32,-24,-19,-51,-54
-43,-17,-94,-41,-22,-17,-32,-30
3,-16,32,-14,-8,-3,-25,-2
44,8,-10,39,25,6,17,-5
23,26,34,-27,6,2,49,15
29,-16,20,38,3,4,-11,20
19,21,-35,-23,-5,0,-6,3
-82,-45,-20,-22,-18,-4,-23,-19
-1,-16,39,64,10,7,4,-9
34,10,-4,-39,-4,7,17,8
20,2,68,29,-7,15,62,48
2,-62,-119,44,42,4,21,17
3,4,-65,-25,-16,-30,-107,-44
-128,-118,-2,-31,-24,-22,-84,-69
21,0,40,-10,-8,-4,1,-5
32,46,20,-6,0,13,26,20
20,36,-33,-5,4,9,40,17
20,-78,13,-26,-2,12,-3,16
14,10,18,15,-3,-3,9,9
45,127,19,58,24,2,36,27
18,0,1,-8,1,-1,4,1
-15,-11,3,-15,-8,1,-37,-23
-26,-8,4,-6,-6,-4,42,-23
23,7,-2,-1,-4,-3,7,7
47,26,1,-11,-3,-1,-46,8
-94,44,2,2,-10,-5,-20,-15
-16,31,14,-3,-10,-2,24,-3
-5,-70,14,34,11,2,-21,-6
18,-14,-89,61,45,1,1,-7
-37,127,21,-15,8,6,-69,-41
30,-11,-4,38,6,8,31,15
57,-32,-50,-14,-8,-3,42,36
-13,2,-27,-36,-18,-4,-2,14
26,-4,68,-16,-10,-7,-3,-14
3,13,23,74,9,2,15,4
-12,56,56,-90,-19,-4,-12,-12
41,58,15,127,39,11,24,25
-13,-37,-25,-20,-5,3,23,20
-21,-6,31,-49,-26,-11,-15,-11
32,-33,-25,-20,6,-16,-65,-41
-14,-17,-53,5,13,6,-39,-11
2,49,19,11,11,16,77,29
-44,-23,-2,-20,-15,-6,3,7
-52,-35,12,-27,-13,-7,-39,-20
38,15,-28,-3,1,2,30,-14
56,8,17,16,6,5,-23,6
22,62,35,13,6,12,52,35
6,11,15,9,7,-1,-12,11
8,14,4,-6,-12,-11,-31,-24
-90,-128,-11,7,-1,-10,5,-22
18,96,30,-16,8,8,34,21
43,10,-99,-36,1,7,-13,10
40,19,8,30,7,17,-3,9
42,24,22,7,-6,-2,-26,10
4,-5,39,-37,-11,-7,-12,0
-54,-44,-17,66,3,-8,8,-20
-28,21,-24,-11,8,8,7,-9
-6,50,-3,-19,-8,-7,-10,7
62,-19,37,-12,-6,5,16,28
-57,-63,40,-13,-5,0,37,13
-5,92,-12,-24,5,-1,-4,-2
17,4,-17,-11,-14,-17,-90,-63
-1,47,20,-14,-8,-5,23,-13
21,-40,-31,31,14,1,0,5
66,-69,-10,6,-1,2,16,35
-45,12,9,-7,-6,-1,24,11
-50,27,61,-65,-25,-8,-8,-25
1,-55,-16,66,8,-4,-26,-5
22,9,-42,37,16,8,9,5
-24,-2,21,20,8,-8,-14,-27
-18,-51,-64,-21,2,-6,-1,-2
-12,32,24,-6,4,7,-16,-8
-16,-128,23,10,-9,-9,-36,-18
20,74,7,-14,-18,-16,-13,-12
20,11,-28,-9,4,9,41,26
-11,2,20,-5,-5,7,1,7
7,18,25,-60,-9,-4,50,2
8,-12,-37,55,-16,-37,-115,-47
13,-35,-44,-15,10,1,-17,0
1,-2,2,-7,6,8,10,-5
31,29,28,-28,1,12,32,19
20,38,30,9,3,7,36,29
10,-8,-11,7,0,0,-5,-1
-36,-4,32,7,5,0,-27,-15
-40,32,-12,2,-1,-7,15,-2
0,27,-53,-45,-14,1,-2,2
-5,14,-17,7,8,-1,1,-14
22,-45,-5,17,3,-3,-18,-2
61,-20,-19,-8,9,4,7,-10
-43,-30,12,25,-5,-1,-1,-10
-23,107,48,22,-2,5,13,22
-14,-82,-32,45,14,-2,6,-3
-30,4,-4,-31,-7,-5,-21,-25
-55,-18,33,-5,-7,-12,-42,-29
19,-31,-20,-58,-15,0,43,12
47,35,-33,17,-10,-2,36,16
37,-5,4,18,-6,0,-6,20
80,64,-38,35,34,6,-33,2
-128,-76,-6,-11,4,6,9,-13
27,37,10,-14,-14,-7,-4,-12
29,-46,19,-16,-19,-19,-37,-3
-99,14,0,-11,-10,-9,-7,-15
-23,-1,24,-6,-4,-4,-8,-18
18,6,15,-33,-6,8,10,-6
36,-13,-26,46,5,1,15,11
-21,33,-9,2,-14,-13,6,15
-26,-14,38,-29,-15,-8,-21,-19
24,-12,27,37,23,7,5,2
74,51,-62,-14,-4,6,12,24
-53,-56,39,18,9,5,7,10
-73,24,27,1,-14,-7,-13,10
-53,2,-13,51,16,-2,-30,-35
14,11,21,-10,-6,-4,47,-32
78,19,-59,-30,-8,4,20,29
50,-15,-38,0,-5,1,8,28
-50,84,63,-19,-12,-7,-20,-12
-20,-72,20,11,-4,-15,-15,-35
21,-31,-27,-40,-19,-9,-47,-9
-19,57,60,9,18,9,19,23
5,-29,-27,38,14,4,41,28
22,-17,-30,-20,-16,-9,-13,-25
-17,-28,-6,-23,-19,-15,-11,-25
8,28,32,-14,-6,-4,0,-10
10,-4,9,4,0,6,34,10
23,16,-35,-1,1,1,-8,18
83,-88,-12,-4,1,-2,-14,22
-53,55,27,-74,-21,-14,-80,-36
-83,-25,-5,75,9,6,28,-31
39,-19,-20,-18,8,7,52,29
28,11,-5,14,-2,0,9,5
43,10,-3,-19,10,2,-11,-12
-46,-6,-14,-5,-4,-8,-78,-29
2,-22,-5,-6,-6,0,20,12
-55,12,33,-2,-3,7,-6,-1
-39,60,26,-32,-21,-9,-12,-15
27,-27,-3,-3,-7,-6,22,-9
23,-44,-4,9,28,7,4,5
-47,-17,-28,-11,3,-3,-1,-8
10,5,21,-74,-23,8,29,21
37,5,48,100,22,1,23,37
10,5,21,-74,-23,8,29,21
37,5,48,100,22,1,23,37
21,-23,-32,68,23,-5,-2,14
-28,7,-5,-42,-17,-22,-79,-60
