Channel_1,Channel_2,Channel_3,Channel_4,Channel_5,Channel_6,Channel_7,Channel_8
-8,1,7,-1,-4,-2,-4,-3
9,17,16,-11,-2,0,7,9
14,7,-6,7,-7,-4,19,11
10,5,53,1,3,4,-4,2
-9,-11,-44,-1,0,-11,1,-1
-44,0,-114,7,12,9,9,1
11,-22,-71,-20,-3,3,8,6
31,-4,127,-3,-16,-18,-16,-10
-43,4,84,3,-3,-9,-10,-16
12,29,-11,6,4,0,-11,5
-9,-48,-34,-24,-13,10,9,18
41,30,127,6,1,7,44,28
-49,-26,3,-4,-7,-3,-2,-13
22,-1,-10,5,0,1,5,2
-3,8,91,-4,3,1,3,-3
8,18,-74,-8,1,-5,-1,5
-11,25,83,0,-14,-14,0,-8
9,-23,105,6,-6,-6,-19,-8
2,-35,-111,-2,8,1,1,9
-16,-7,-17,20,8,7,10,6
24,32,40,-15,-6,-2,0,-2
2,9,33,-1,2,-1,-42,-15
17,51,86,-5,-1,3,25,17
-18,-42,-81,-24,-14,-12,1,-13
13,8,40,7,-3,-7,-31,-8
-6,-53,-128,-34,0,3,-15,-9
1,22,76,22,8,5,-1,-1
26,62,89,30,13,6,-5,9
-4,14,-30,3,5,4,6,-3
5,-1,-14,-8,-4,1,-8,-3
8,23,40,14,-6,-6,-1,1
9,-20,-112,23,7,1,1,-1
3,8,23,-2,2,-13,-13,4
18,18,53,-4,-6,6,10,8
-30,-62,-128,-19,-5,12,12,12
-9,0,48,-17,-7,-13,1,-5
-40,1,7,1,2,2,7,-11
3,7,29,-7,3,-1,8,16
8,8,-56,-1,0,13,16,8
-6,-16,16,-4,-3,-3,22,14
4,24,37,0,0,-7,-22,-21
-8,25,127,-10,-5,-11,-33,-22
-3,-33,-128,9,-7,-12,-19,-18
3,-65,-9,-7,1,1,10,1
14,16,34,-9,-6,-4,-6,1
-9,15,-37,-1,-6,-1,8,3
-3,3,122,-3,-2,-4,-1,5
8,21,91,14,5,4,22,23
9,4,-115,7,8,7,20,14
-36,-73,-128,-26,-17,-15,-35,-46
-76,-5,-6,-1,-2,-2,27,14
6,27,75,5,-3,-7,-14,-15
-6,-25,-1,-6,-2,-1,-7,-13
-12,-4,28,-10,-14,-12,-31,-17
14,16,6,-29,-2,1,-5,11
24,10,-10,11,-3,-12,-3,5
51,44,89,15,10,10,24,39
-44,-109,-128,-12,5,8,33,8
-7,-1,-9,-4,2,-1,14,-15
-9,36,88,8,-2,-6,-67,-51
-14,-47,-61,-43,-16,-7,-7,-10
7,-14,-96,-15,-8,0,-3,-2
16,-6,-31,9,-1,2,4,6
21,10,58,7,5,-3,-2,8
-52,46,70,24,17,7,4,-2
1,-28,-10,-13,-3,0,1,-4
34,29,74,-8,3,7,15,27
-20,-6,-128,-3,-3,-11,7,-2
25,-53,-33,8,-5,-12,-19,-14
-54,-9,23,-9,-10,-16,-11,-10
20,1,25,13,5,3,6,14
24,13,-24,2,1,15,13,3
-5,19,-28,4,-8,-8,-22,-14
-13,42,90,-27,-6,-6,-12,-6
0,-12,27,40,0,-4,16,15
-6,-10,-22,-4,-3,-8,-31,2
16,9,17,-7,-4,-4,0,-11
-3,5,41,-4,0,-2,5,-13
19,31,8,5,4,9,0,3
7,7,115,4,3,1,18,19
-15,-35,-88,-8,-10,-4,12,-2
-11,-1,-15,-10,-5,-1,-15,-22
0,11,84,0,2,-7,-32,-11
6,14,-82,1,2,6,13,26
40,-11,-38,25,5,3,44,34
13,45,119,-2,-1,5,1,-16
-27,-115,-128,-25,1,7,-71,-42
-84,-19,127,-15,-22,-13,-31,-38
-10,10,3,5,-5,-10,-2,-1
28,23,37,0,-1,1,12,16
9,15,-35,-1,0,-6,12,19
14,21,7,6,1,1,12,15
-13,71,11,1,-1,3,16,7
-14,-128,-128,-15,7,-1,-7,-13
-1,15,127,-7,-9,-12,-4,-18
-1,-5,-34,13,2,-1,-14,-3
11,25,14,3,4,6,-5,-3
0,12,-41,-1,-5,-8,0,3
14,0,13,0,6,-5,13,9
32,75,49,27,7,3,15,10
-27,-128,-128,-52,-12,9,-7,-9
19,-22,59,-1,-13,-9,-16,-5
-37,-24,-8,35,0,-11,-10,-9
-15,3,-22,0,1,-2,0,-5
18,11,-11,-7,1,4,9,19
13,12,-10,16,8,6,25,21
6,50,123,16,10,3,18,2
31,-30,-128,-15,-2,-17,-51,-23
-37,-45,-17,-19,-19,0,-19,-20
-5,-1,17,-3,0,14,-4,-5
-36,22,74,2,-1,-6,4,2
18,-12,-41,-1,-7,-9,25,18
2,-31,87,-9,-7,-5,17,0
-17,13,56,2,2,0,-22,-19
43,21,-30,-2,-2,-1,-17,7
-16,-22,5,-12,-8,-17,-5,9
25,4,-21,-7,-2,3,4,23
-13,6,0,-1,-4,11,-13,-12
-24,15,66,18,9,7,34,-15
-12,-39,-80,1,7,-5,-18,-6
-10,-15,-53,-10,-16,-10,-17,-6
-22,-2,3,-9,-15,-9,0,1
4,10,58,-1,-4,-1,30,12
-11,3,-58,5,8,4,4,-1
11,8,-37,2,8,9,-17,8
4,33,51,-2,-1,-2,-25,-16
5,-5,127,3,-6,-5,2,2
2,-46,-128,10,-3,-8,2,-2
11,3,45,0,-3,-4,-8,6
-21,6,-2,-19,-8,-2,14,2
17,22,17,11,4,17,-10,-1
15,15,-17,8,3,3,0,4
-26,20,28,-2,1,-1,12,6
-4,-79,-44,-36,-18,-17,-10,-17
-11,-14,58,-15,-12,-12,-9,-13
-22,13,2,-11,-8,-1,0,1
15,18,5,6,3,3,9,12
-5,16,2,23,6,3,2,20
34,-11,-33,0,2,-1,-3,-21
3,11,62,1,1,-4,15,-13
-32,-13,-128,-8,-7,-8,-14,-10
-13,-19,19,-6,-2,-3,-28,-23
-4,1,14,-3,1,-6,-49,-11
6,31,25,6,1,1,12,15
15,8,92,-10,-2,4,-6,7
-8,-44,44,-18,-14,-10,-3,-13
13,1,-34,-21,-15,-12,0,-3
9,17,-12,13,1,0,9,11
4,-4,-33,17,27,18,15,5
21,1,-8,-15,-3,-4,1,4
-23,10,-41,17,-4,-3,-2,-6
-10,-3,42,2,6,0,-3,9
45,-11,-59,-10,4,8,4,27
-35,-9,97,-9,-3,2,13,-6
-9,-48,-72,-8,-16,-20,4,-28
-34,-1,-64,-11,-7,2,-62,-35
30,-37,-112,-18,0,3,-3,7
-25,16,112,1,-4,-4,3,-1
23,8,-62,-2,2,5,8,19
9,-9,3,-1,2,6,17,20
0,5,-26,3,1,-1,23,6
-37,-13,38,-6,-1,-4,-32,-14
5,30,8,-2,-2,-9,-19,-11
-23,-58,-108,-26,-7,0,11,9
27,57,99,20,2,5,19,1
20,-83,-128,-11,-1,-2,-30,-13
15,-10,127,-20,-12,-13,-14,0
-22,-13,-7,-18,-16,-8,-6,-8
-14,15,13,1,-4,-2,10,2
4,15,-32,9,17,10,19,14
0,27,-12,12,6,3,3,-1
-24,-25,98,-24,-3,-1,-6,-10
1,2,13,0,-13,-10,-17,-28
22,41,117,2,1,1,13,28
9,-12,-128,-24,1,9,41,15
-13,-7,-34,10,4,4,-5,-14
-33,-64,-86,-29,-11,-10,-75,-42
4,7,43,5,-5,-12,-2,6
14,1,-18,-4,-7,-12,13,-7
-27,-11,-6,-3,-3,11,-32,-23
24,25,-12,3,0,-2,2,7
6,-8,-39,1,-2,-1,10,10
26,-2,112,7,-1,-2,6,17
-45,10,24,-16,-5,-2,1,0
-1,-9,37,10,5,1,22,16
34,11,-16,5,-2,-2,-7,8
-38,-10,-25,-1,-2,-2,4,-31
-15,3,-35,-3,-2,-6,-33,-7
13,36,113,14,4,8,35,28
-7,-35,-128,-16,-2,7,27,-12
-7,36,60,7,2,-9,-76,-33
10,-45,12,-25,-1,-1,-7,7
-11,9,32,7,-9,-8,12,-6
6,19,2,-10,-11,-7,10,6
-6,0,-44,2,6,3,-11,7
3,10,14,9,8,3,44,26
27,10,-69,-5,2,0,-51,-41
-15,-15,-70,-7,8,8,-18,6
-5,-10,93,-2,-8,0,36,29
-28,-22,54,-5,-10,-4,40,10
9,-2,-29,-14,-7,-9,-39,-72
-24,31,-83,9,6,-1,-60,-62
-12,-77,-57,-2,-6,-9,1,-11
9,-5,127,-4,-10,-9,-12,4
28,47,119,14,10,12,18,27
28,-33,-54,-11,8,16,32,47
-30,6,48,-5,-2,0,52,39
21,-12,-84,-15,-13,-4,-5,1
-25,10,73,-10,-6,-7,-71,-47
-18,-42,-128,-16,-1,-15,-12,-30
5,11,17,1,0,-10,-37,-35
-10,21,28,3,2,4,9,8
32,-7,9,0,-2,1,31,31
1,11,-24,-6,4,10,52,58
25,-12,-44,8,-6,1,13,-3
6,17,42,6,-4,2,-83,-80
-25,-33,89,-13,-2,-11,-65,-25
-3,-3,58,-3,-7,-9,9,2
2,11,-13,9,9,7,61,28
2,23,9,8,-1,-4,6,6
27,2,-75,0,7,9,24,36
17,10,3,-11,-9,-9,22,9
3,-4,0,-7,1,-1,-31,-12
-61,-20,-48,20,2,-10,-34,-38
32,40,124,15,3,3,-5,-4
-5,-22,-128,-2,6,3,6,7
-20,-6,127,2,-10,-9,10,11
81,18,8,-38,-4,12,42,46
-20,-4,29,79,0,-5,21,-15
-30,1,-59,13,6,-8,-61,-26
-7,-2,-90,7,7,0,-6,-7
6,27,64,-8,1,0,-22,-15
-21,-44,-128,-23,-13,-7,-5,-12
-8,-6,30,-9,-4,7,10,1
18,40,51,7,2,-3,14,21
24,4,-128,5,4,-4,17,25
36,-4,58,2,-7,-4,13,-7
-37,-4,-35,5,1,0,-39,-43
-27,-8,127,2,-5,-4,-3,3
-21,-21,-128,-29,-12,-6,2,-13
19,10,-128,11,16,12,22,41
40,13,100,6,5,-3,34,25
-4,-2,104,-3,-8,8,4,-3
-24,-16,-110,-15,0,19,-17,-5
-10,49,86,25,-2,-12,-5,-10
-13,-53,-28,-12,-1,-9,-23,-47
-55,-34,56,-16,-9,-14,-11,-21
-5,-26,-33,-5,-6,-6,2,5
18,23,10,3,3,6,14,21
15,6,-27,-3,6,9,19,17
15,19,-18,7,5,4,12,25
11,-25,-92,-4,2,3,20,24
-11,-4,-23,-8,3,-3,44,20
4,18,75,-2,-14,-3,-12,2
-3,8,14,6,1,-1,12,-25
-4,17,43,-16,-9,-17,-123,-85
-7,-38,-128,-2,0,-11,-36,-20
26,26,110,12,4,4,4,32
-51,-51,-67,-47,-22,-7,55,7
-5,38,64,35,7,-1,-23,-50
-40,-84,-128,-21,-6,-7,-44,-39
62,47,52,19,10,6,7,16
-31,-57,-57,0,12,8,25,23
-15,-4,102,-18,-15,-7,6,5
20,5,-30,0,-5,2,14,22
-2,16,31,6,4,2,21,6
-21,-9,-62,-7,5,-1,-11,2
-2,-11,-40,-6,2,3,18,23
-5,-1,59,4,-5,1,45,2
-10,19,65,-2,-3,-6,-101,-66
21,69,57,12,11,1,-28,6
30,-110,-93,-8,4,11,9,16
-23,-1,127,-11,-23,-10,6,-17
-43,-4,-28,-1,-7,-6,-1,-10
0,-8,-19,-5,-2,-18,-11,11
1,11,-10,3,2,1,-4,-5
15,22,-5,3,3,3,-3,-5
16,7,-13,-5,-1,3,2,24
19,32,-42,-13,-1,7,68,88
15,32,-26,10,4,12,72,57
-21,-85,91,7,-11,-21,-54,-100
-32,0,127,-12,-11,-20,-108,-104
-59,5,-128,12,3,-3,-16,-32
-7,-2,14,3,-1,-1,24,20
29,32,76,4,7,5,38,38
11,3,-61,8,4,2,43,48
1,36,-26,-5,0,4,-7,-5
-11,-58,-33,-12,0,4,-28,3
-27,-73,61,-24,-16,-8,5,-10
-15,-7,25,2,-13,-11,-9,-6
3,9,-7,-7,-2,-7,16,2
49,16,1,21,9,5,11,29
66,22,23,8,10,22,84,127
-24,-19,-47,-7,3,-2,62,-58
-68,4,8,8,-5,-24,-128,-128
-79,-43,73,-22,-23,-29,-78,-77
5,-9,7,-5,-12,-1,96,45
19,5,-18,-6,-1,2,-17,57
29,53,48,13,13,14,81,51
20,-44,-128,-1,7,6,6,-22
-44,-118,-128,-42,-21,-34,-128,-93
-9,11,93,2,-5,-11,-24,-1
7,4,-44,1,6,8,34,33
6,6,-79,-5,-2,18,45,64
15,14,-82,8,8,19,55,33
8,50,89,17,5,-15,1,-37
-19,-67,-128,-14,-4,-8,-64,-45
-18,7,24,-3,-15,-12,-15,-18
0,-16,9,-6,-5,-1,-53,-3
17,3,-15,5,1,4,62,80
14,18,32,4,5,29,104,62
-5,16,-108,-8,4,-12,-50,-87
-35,-11,127,14,-2,-17,-78,-79
-9,-7,-33,-9,-10,-1,-64,-23
25,27,17,5,2,3,22,22
13,5,-14,-2,11,9,77,41
-33,-54,-53,-29,-6,-6,-17,-43
0,58,127,21,4,2,-51,-12
4,-20,-128,-18,-5,-3,16,18
3,35,54,38,-6,-13,23,25
-11,-14,109,-9,-2,-5,-14,-5
41,32,109,16,6,2,-9,-5
-31,-32,-128,-3,-2,-1,9,7
15,30,48,-8,-6,6,33,43
16,-12,-90,-10,9,21,69,78
3,10,96,8,-3,-2,24,-33
-59,-3,-8,-1,-7,-14,-100,-128
-31,-1,1,7,3,-14,-83,-50
3,26,14,9,5,0,1,19
6,-1,-79,-17,-2,-6,9,10
5,-16,-21,-16,-11,-11,19,26
10,-13,-43,-8,-7,14,20,50
13,10,26,4,-1,15,37,38
5,28,78,13,10,2,10,10
15,11,-18,3,5,2,2,-32
-29,0,-30,-31,1,-5,13,-18
-39,-14,127,4,-6,-14,-46,-65
5,-48,6,-17,-9,9,-80,-7
0,-18,-39,-2,-5,3,-6,14
-10,22,35,-1,-14,-30,85,10
20,4,20,9,0,-3,22,26
8,-5,-128,-16,5,8,28,-20
3,-44,127,2,4,-4,-81,-23
-13,-7,127,1,-14,-9,-6,-1
-5,11,16,6,1,13,1,9
1,10,-44,-2,6,3,3,1
1,14,11,2,-4,-3,-12,5
-5,-1,106,-8,-10,-8,5,6
-8,-4,-128,3,12,1,25,8
17,7,-46,5,7,20,-6,14
-2,-56,-35,-29,-36,-32,21,16
-12,43,127,10,-2,-2,-19,-38
-4,-26,-32,-10,-3,-14,-86,-63
-22,-8,7,6,1,0,-24,-16
-10,-6,12,-1,5,13,41,49
45,-31,-39,-13,-4,2,68,75
30,22,32,1,2,-1,-8,-36
-45,56,7,12,9,-10,-104,-75
-24,-90,-29,-12,-6,-4,-25,-25
-6,-6,91,-9,-8,-6,-7,-10
15,18,39,6,4,3,6,14
25,37,-60,10,5,14,29,29
-4,-56,121,-21,-13,-7,10,19
15,5,-9,-3,-3,4,54,64
5,5,19,-5,-10,0,45,8
14,22,3,4,-2,-4,-60,-36
-13,-8,-43,1,-3,-10,-66,-70
0,26,69,9,7,5,-17,-26
-2,17,-128,8,5,0,25,30
2,-58,-85,-10,-10,-11,-7,-1
-8,-42,-14,-11,-4,-12,-1,-1
-20,6,53,4,3,8,9,8
-10,33,127,-9,-8,9,17,12
6,-39,-128,-9,-7,-8,22,23
-2,2,54,2,-7,-13,23,7
4,-6,-103,3,7,18,-10,-18
-2,9,17,1,0,-1,-22,-5
7,8,11,7,7,1,-16,2
13,23,24,4,5,-8,9,13
-4,-12,-22,-18,-2,-3,10,6
19,8,47,2,0,8,27,26
-6,9,-11,6,-4,-4,38,4
-20,1,127,-25,-14,-9,-16,-57
-29,-20,-18,-2,-1,1,-93,-31
10,5,-65,1,0,-2,18,35
13,4,13,-9,7,2,62,5
-6,20,108,35,-4,-27,-44,-34
2,-15,-128,7,8,10,17,29
11,6,53,-25,-14,15,37,21
-10,-7,-99,-16,-1,-5,-45,-25
-9,20,-25,17,10,-4,-66,-51
-5,-36,-128,-9,1,4,12,17
10,-13,127,-9,-9,-2,52,31
8,-15,-55,0,4,7,11,1
18,1,28,-10,6,2,-7,16
-35,13,-4,4,-5,-12,60,11
-21,-6,-128,11,0,0,-50,-29
0,1,76,-8,-7,-8,-39,-9
28,63,-5,28,7,4,5,25
22,-54,46,-20,-1,3,7,13
-25,1,-6,-14,-2,-4,-3,2
-6,-42,0,-14,-7,-3,3,-10
14,8,23,5,1,5,63,79
31,23,69,9,8,11,111,65
-19,-4,-12,4,-10,-20,-92,-61
-13,41,69,6,1,-9,-127,-111
-1,-9,-128,10,13,2,-102,-60
-14,-29,-82,-30,-22,-17,1,-1
12,-7,24,29,-1,6,58,69
17,8,47,6,4,14,119,86
19,3,26,-14,-1,4,60,25
-6,13,52,6,2,-12,-128,-57
-16,6,-26,-3,6,-4,36,-43
-21,-33,-128,-12,11,0,-116,-88
-9,22,127,2,-19,-17,-11,-4
-1,-19,-82,1,-7,-9,59,44
4,5,91,8,-2,4,7,-8
10,4,-4,-2,0,0,15,47
14,28,-99,8,8,10,40,20
-16,-32,127,-15,-4,-9,-25,-43
-15,-42,-58,-23,-7,-12,-18,-16
9,-6,26,1,-8,2,36,68
7,9,9,-2,2,1,42,27
-1,5,2,7,2,1,-38,-88
-15,-8,-37,-23,4,1,-92,-66
-27,17,81,-4,-15,-11,-32,-39
6,29,-45,79,20,9,23,22
-3,-29,83,-21,-8,-4,23,23
4,-17,67,-1,-9,-5,2,3
22,-17,-128,-14,2,12,83,64
0,12,-27,-2,1,0,22,-25
-5,-6,60,-10,-13,-16,-128,-60
-25,23,-3,-2,1,-2,-12,-13
-28,-44,-48,-15,-1,0,15,1
6,11,-56,-6,-2,-1,11,16
15,37,19,12,0,10,21,17
-4,-104,-128,-39,-11,-17,33,25
6,26,79,4,5,11,-1,-6
-16,-6,-89,22,12,1,-54,-42
-5,-3,3,2,2,-14,4,-6
0,-2,48,-4,0,1,16,18
-4,17,-22,2,-2,16,13,5
39,5,-20,1,1,7,13,36
33,6,8,-1,-10,-7,67,34
-17,-3,18,-1,-7,-25,-39,-48
-9,-22,4,-2,-1,-5,-99,-45
-9,1,38,1,0,-6,-34,-20
-7,-37,-25,-24,-6,-4,7,8
6,14,43,0,-2,9,40,22
19,24,110,10,-3,1,21,33
3,-42,-128,-20,-3,-6,9,-1
-25,27,-22,14,5,-7,-25,-34
-22,-39,-8,-7,3,15,-3,-6
15,22,127,5,9,7,25,8
-21,-32,-70,-17,-20,-17,6,-28
-6,10,-70,-29,-17,-15,-66,-9
19,32,40,19,13,4,9,10
-23,-11,73,8,-1,-5,-5,-18
-9,14,-17,-7,-7,-3,-35,-24
-4,9,5,-5,3,0,-1,-6
3,-43,54,-16,7,6,38,24
17,2,12,-8,-11,11,55,54
10,13,-11,40,3,-2,46,21
14,5,11,-1,-8,-11,-110,-71
-44,-6,31,-10,-3,-10,-52,-35
-40,-13,-43,-7,0,-3,-9,-6
8,-3,-10,-7,-2,9,45,35
-10,12,7,-2,-3,-1,72,4
33,10,-19,-5,-2,-2,-87,41
61,19,19,5,2,5,76,56
-16,13,89,10,-2,-22,-35,-59
-56,-36,-128,-29,-9,-15,-128,-120
-19,-29,-51,-13,6,-2,22,-7
9,-11,118,-2,3,12,101,92
7,19,90,0,-4,5,86,30
-9,9,3,5,0,-14,-84,-91
5,15,-72,0,5,-3,-79,-27
19,60,127,18,1,6,16,35
-10,-33,-70,-25,-15,-3,44,10
2,-19,-73,3,2,-1,19,22
0,-1,57,-3,-4,-1,4,-1
8,31,1,6,5,6,4,5
-6,-54,13,-8,1,1,-11,-4
7,-2,-109,4,0,5,-9,12
-9,18,127,-17,-9,-4,0,-16
4,11,-27,13,-12,-12,15,0
7,9,73,2,1,-8,-39,-11
-42,-29,-128,-5,5,7,2,-7
-7,4,73,3,-3,2,9,11
27,28,-91,6,7,9,72,90
11,-23,109,-37,-11,-3,98,29
-13,21,7,11,-1,-8,-123,-118
-43,-38,33,-2,-1,-11,-103,-84
-20,-14,9,-2,-1,-8,-23,-33
11,42,-25,26,1,-4,-2,15
2,-35,-62,-36,-4,12,31,25
-8,-65,-19,-11,-12,-10,24,22
0,13,12,-12,-5,12,18,17
10,21,15,9,2,8,5,21
5,9,-2,14,8,1,6,17
11,-5,-60,2,8,12,88,21
-7,33,68,10,-5,-14,-12,-18
-28,-87,-46,-35,-12,-1,-48,-49
-1,-2,-128,-8,-4,-2,-8,-3
3,13,26,5,2,-2,15,11
11,11,25,8,7,6,-17,11
9,12,14,-2,2,4,51,53
-13,2,-2,3,-3,5,-15,-7
-29,-26,-10,-5,-8,-28,-128,-112
-12,23,25,0,-1,-7,-31,-31
-5,-19,-14,-12,-7,-1,1,9
1,13,64,5,-7,-9,16,19
8,-11,-67,-8,-2,6,43,28
20,10,-20,5,4,11,78,70
15,22,112,18,21,16,69,25
-34,27,-128,16,-7,-22,-128,-128
-43,-40,127,-28,-16,-22,-68,-81
5,5,93,-5,-2,-1,4,-9
3,18,54,1,-8,-3,18,22
3,8,-7,-2,-1,-1,24,22
11,5,-19,0,1,12,46,45
20,10,-16,-9,-1,3,57,31
-11,16,43,1,-1,1,-68,-9
-6,-22,-87,9,1,-12,-9,-19
1,-29,-70,-9,-6,-3,-77,-47
-32,18,72,-9,0,21,-12,-12
-2,-36,-115,5,-6,-9,-20,1
0,-12,-56,-2,-5,-10,7,15
11,20,-52,4,1,-1,39,11
0,-14,-11,-5,3,9,-7,-4
-10,-35,25,-4,-12,-12,7,-14
-1,-5,-3,-10,-7,-12,-17,-2
4,2,-24,4,2,3,0,3
6,8,-10,2,1,1,4,4
3,10,-7,1,3,4,6,13
4,5,-16,-1,-3,2,20,13
11,22,13,0,2,9,-23,-13
-4,-9,-10,10,5,5,-27,-40
-6,-53,-128,-16,-6,-18,25,-5
-8,-32,4,-26,-7,-4,21,20
-13,16,111,11,-8,2,18,-5
-30,-13,-47,0,-4,0,-28,-12
2,-16,-60,-10,-3,-7,7,-6
3,12,17,-1,-1,-5,-73,-36
6,3,1,0,0,1,-25,-7
0,4,-2,-1,5,6,15,11
12,14,-1,7,6,0,3,22
6,7,25,13,0,-12,16,28
23,46,-25,9,9,23,15,11
-9,-68,37,-6,-20,3,27,12
6,-37,-128,-11,-7,-7,67,-30
-37,7,21,-6,-9,-20,-69,-50
-2,-9,-85,-5,1,-9,-32,-13
-1,4,54,5,0,-3,-8,8
6,13,13,3,0,3,10,15
8,-6,-16,1,6,8,21,19
6,4,-10,-1,-1,7,37,26
-2,2,-7,2,-3,-1,-8,-12
7,17,18,-6,-4,0,-62,-13
22,69,127,9,16,8,22,20
-1,-77,-128,-31,-7,1,34,40
-20,-36,103,-8,-18,-7,70,60
-7,5,51,8,-7,-16,26,-27
-26,4,24,4,-2,-8,-128,-128
-10,12,-29,-16,-4,-10,-23,-36
-16,-2,0,-6,-5,-11,-11,-30
6,6,-12,-1,0,3,22,23
13,5,-7,-2,-4,5,51,42
15,36,111,-3,-2,6,39,36
-8,-19,-61,-9,6,7,23,15
13,0,-37,32,7,4,-13,8
2,-10,-12,-4,-11,-7,7,1
-7,-3,34,-10,-6,-1,18,6
-7,0,26,0,1,-10,-19,-8
5,5,-24,-2,-1,-9,-23,2
5,4,-36,-13,-7,4,-10,-3
-2,34,82,13,-2,5,18,-4
-27,-29,-120,-24,-9,-10,-3,-16
5,-15,-2,3,23,-5,-50,-7
4,6,55,0,-7,2,22,11
-9,1,38,2,-3,-2,58,-17
8,24,65,7,3,-5,-20,4
8,-38,-128,-10,-4,11,20,29
-3,-43,127,-22,-9,-2,7,13
-8,-14,-107,-11,-10,-17,-34,-27
-14,8,30,8,1,-4,-23,-32
4,12,30,9,6,1,-26,-9
6,23,-40,8,2,3,18,34
3,-41,-128,-2,1,5,24,18
3,2,-33,-19,-11,-4,30,27
7,6,5,6,7,8,55,37
-9,2,-3,-2,-3,-4,-56,-63
-20,2,-9,-2,-4,-10,-112,-105
-1,-2,-19,-5,-3,-14,-61,-6
4,-6,-13,-6,-3,4,33,34
20,4,-4,1,-1,10,126,104
6,9,-27,-2,-3,3,37,-18
-11,9,11,2,0,-8,-128,-82
-8,35,53,10,5,-2,-42,-27
-2,-58,-79,-21,-6,-11,11,23
-4,-13,10,-12,-5,0,43,29
5,9,58,-9,-6,-2,27,22
2,27,36,5,-1,-6,12,0
-4,-45,-95,34,3,1,-17,-12
6,14,74,3,6,3,4,-2
10,6,-50,-12,-7,11,31,37
-2,-7,10,14,0,10,68,29
-7,-2,85,-4,-5,-24,-33,-4
-1,40,103,9,11,4,2,-30
-19,-15,-14,-15,-15,-20,-111,-65
-4,13,77,0,-9,-7,-29,-11
7,21,89,6,3,0,6,10
-1,-14,7,-9,-2,-1,18,9
7,-2,-85,-3,-1,5,5,25
6,14,-47,5,1,7,28,16
-8,-8,127,-13,-17,-7,49,20
9,-4,-103,-6,3,0,-33,-1
0,9,-121,3,10,-1,-15,-16
-19,8,95,-2,-16,0,-7,-20
-4,-14,15,7,0,-3,-10,-7
1,-1,-7,0,-2,-1,-1,-15
12,5,-12,2,3,3,21,19
22,11,-20,1,0,4,26,30
-9,24,-77,0,-4,1,-13,-5
-28,-64,-85,-31,-8,-28,-123,-43
2,-14,12,-1,-8,-12,52,8
-20,5,87,11,3,7,39,-14
5,-22,-128,-11,1,5,28,20
-2,2,31,-13,-9,-4,-1,-8
-5,6,28,6,1,-2,-66,-33
3,6,7,0,1,2,-28,-12
9,8,24,2,-6,-3,5,8
10,-1,-4,-2,4,4,20,18
-10,2,-57,0,0,-6,-1,1
-5,33,122,2,-2,-4,34,36
9,-41,-128,-5,0,15,79,24
-13,-1,29,0,-10,-3,-44,-30
4,-6,4,5,3,-1,-10,0
0,23,45,5,6,-8,-14,-35
-5,-14,22,3,-1,-1,-97,-79
-21,-66,-128,-29,-11,-10,-14,-19
9,5,-118,-8,-4,7,69,67
-3,-4,127,-6,-14,-3,83,16
-4,4,11,1,-4,-8,-88,-40
3,15,24,4,4,7,-90,-11
10,41,48,14,8,-16,1,7
-7,-85,-128,-18,-3,3,71,14
-1,-13,-7,-5,1,19,24,7
3,9,11,2,-1,13,19,5
17,13,11,6,4,0,20,13
15,24,5,-3,1,5,60,57
-21,-31,-65,-10,1,1,31,-24
-27,-30,-113,0,-9,-23,-128,-114
-8,3,50,10,-1,-12,-42,-4
-5,15,38,-5,-6,1,10,14
-1,-4,-4,-1,-4,1,-7,4
1,8,23,2,1,-5,-4,-4
6,7,-54,-3,1,8,27,7
7,1,18,1,2,0,20,16
-1,0,37,8,-2,2,56,5
3,-20,10,-13,-5,-2,-27,-2
5,44,1,2,8,2,-18,-6
-19,-20,19,-2,-6,-9,-22,-9
0,-65,-113,-12,-7,-3,2,14
14,12,17,2,4,8,79,52
13,11,-1,-1,-1,0,32,2
-21,7,11,-3,-4,-16,-128,-114
-27,0,1,3,0,-7,-33,-39
0,1,4,3,-1,-4,25,12
5,4,8,-6,-1,10,15,18
8,2,12,-1,-1,0,30,30
7,12,36,-2,-6,8,47,21
-3,7,-82,5,-2,-6,8,1
-10,-25,66,-16,-14,-11,-15,-12
-3,-17,-25,-11,1,0,-20,-10
-12,7,5,-2,-5,-8,-7,6
5,4,13,0,-5,-19,-14,0
-3,9,-1,-1,1,22,3,-2
6,8,3,2,2,-11,30,19
-5,4,18,-9,-4,-2,-10,-12
1,-1,-9,-4,-1,13,-43,-16
-11,-2,-2,16,-1,11,39,0
-2,6,35,12,23,-2,-31,-29
16,17,72,20,22,1,-11,-1
-5,-18,-71,-25,-14,-20,-29,-2
-32,-39,30,-20,-25,-14,-9,-11
0,12,48,-7,-12,-1,2,9
15,0,43,-2,-6,3,9,24
4,22,51,-1,-4,3,72,23
7,6,2,11,2,-13,54,0
-13,-20,-106,-26,-10,-1,-128,-49
-5,1,127,3,-4,-5,6,5
-4,-5,-122,-2,-1,5,127,55
8,-2,-28,-4,2,1,33,13
-13,5,31,1,2,-1,-33,-44
-1,9,-128,-3,5,-28,-89,-49
-11,-16,127,-1,-8,20,-29,-9
-4,-20,-2,0,4,-12,20,12
2,2,11,4,-2,0,30,32
9,5,-15,-1,1,1,29,10
4,3,-31,-1,8,7,-20,3
-3,3,-12,-1,-1,-2,8,9
2,7,2,0,-5,-3,12,14
-1,13,-5,5,-2,-5,-26,-7
-7,-54,-75,-11,-2,4,-13,-38
-8,1,64,2,3,-1,-45,-25
-2,4,45,-2,-4,-8,-5,6
-17,-8,5,1,-1,-3,8,10
5,2,-42,-2,-1,-12,10,4
23,31,64,6,0,4,-10,33
9,27,-1,11,11,17,88,35
-13,-86,-128,-35,-13,-11,-28,-45
-26,-17,-15,-19,-5,-22,-71,-32
-23,3,127,12,-3,-7,-15,-22
-10,9,88,-8,-12,0,14,5
13,18,25,3,0,6,35,23
9,2,-19,3,6,-3,19,-3
3,5,-9,-1,4,0,-6,-3
12,10,-12,-2,-6,-4,-9,9
-12,-2,45,6,3,-2,-3,-6
2,8,35,13,6,6,-16,3
16,3,41,-4,-1,3,57,40
-3,-7,41,-18,-13,-4,22,8
-38,-26,-59,1,-1,-5,-63,-59
-10,22,125,7,3,-3,-93,-53
1,-29,-128,-19,-4,-11,-16,-6
9,-15,46,-3,-9,5,37,36
-15,2,-93,0,-1,6,53,20
-9,-2,-31,-6,4,5,-28,-10
3,17,127,-5,-14,-16,-10,-13
9,6,-4,15,0,9,4,1
10,7,-13,7,3,0,9,13
-2,23,13,-2,-2,-2,6,5
5,-4,-60,8,6,-1,-2,4
-18,-32,-45,-24,-9,-8,-3,-5
4,10,77,-4,3,22,70,29
18,-6,-66,-2,1,-4,30,13
-30,2,-4,-1,-2,-13,-84,-39
-4,-3,2,-16,-10,-14,-25,-14
-15,2,16,2,-5,-9,-50,-38
2,5,-9,7,-6,-2,-2,6
-3,2,102,-3,-2,4,6,-7
8,24,127,-1,9,22,22,16
-2,-13,-32,0,1,-11,20,7
-3,-26,-9,-7,-8,-11,-1,-13
-3,6,18,5,-1,-1,-23,-4
-7,14,19,8,-2,0,10,-1
10,0,38,-3,-1,-2,-1,-4
-6,-1,-11,-8,-6,-5,6,2
2,9,42,3,-4,0,3,15
18,-1,-76,-1,-4,-6,16,12
-10,-14,-73,-1,0,1,5,-5
-14,11,113,-4,-5,3,-28,-19
21,-52,-59,2,-1,-4,-14,-17
-8,-18,-9,-21,-6,-6,-1,1
5,5,-10,7,2,6,70,56
4,-1,-20,2,2,-3,56,16
-2,11,23,4,2,-10,-127,-63
-26,7,25,6,1,-7,-64,-49
-4,-23,-128,-10,-3,5,22,2
-2,-15,2,-19,-7,3,8,4
7,6,-24,-12,-9,1,12,37
2,7,28,2,-2,7,47,12
8,0,76,22,5,0,20,4
-4,-10,-36,6,-1,-2,-20,9
2,5,51,-13,1,0,61,32
-7,3,-14,-4,-4,-12,-17,-45
-11,14,41,2,-7,-2,-128,-77
4,-6,40,11,-16,0,7,9
2,16,8,-9,-1,-13,10,18
7,16,-73,-12,18,8,27,24
0,-62,-94,17,8,5,2,5
-20,-29,127,-13,-21,-20,-15,-7
2,12,55,13,0,2,0,-4
2,16,1,4,1,1,-2,-5
5,15,-15,1,2,-3,3,4
2,-5,-31,-7,-8,-1,-1,2
5,1,-14,-3,-4,-3,1,12
0,1,-15,-8,-6,5,8,-2
0,-4,8,1,0,-11,-2,-5
0,0,-28,-5,-3,-2,-12,-1
2,6,34,0,-1,-8,-3,-3
-5,-17,-70,-2,2,-4,8,22
-6,-14,-40,-2,1,8,13,-17
-9,-5,-9,7,1,-3,-88,-51
-2,32,119,5,-1,-7,-10,-2
8,-17,-128,-6,-5,6,46,55
-7,-6,100,-13,-9,-1,44,2
-11,-6,16,-1,-3,-6,-47,-63
14,20,16,7,0,-7,-45,-11
-8,-39,-66,-1,5,0,4,9
-27,-9,27,-11,-7,-2,15,5
-3,1,36,6,-2,0,35,17
9,2,-13,1,-3,-3,27,23
5,11,7,-3,-3,-5,18,9
-6,-8,23,-4,4,12,-30,-24
-3,-12,-128,1,-1,-7,-33,-20
-6,9,30,1,3,-2,-2,0
7,20,21,-2,1,1,15,11
-1,-3,53,7,-6,-5,-9,1
-1,-8,-71,1,-8,-2,24,8
9,0,46,-12,-8,0,56,63
8,30,14,-6,15,14,54,9
-22,-80,-128,-16,-1,-15,-111,-78
-30,-35,127,-7,-12,-15,-23,-42
-6,12,31,6,-3,0,-1,1
8,17,5,3,0,-7,14,16
3,11,-2,0,-1,10,23,18
5,5,-9,-1,0,9,13,15
6,10,6,-3,-5,-5,4,13
8,0,-19,-1,1,2,20,23
1,-10,-26,1,8,-6,17,2
2,6,-1,1,3,5,-47,-38
-4,-12,-12,-5,-5,-2,14,-1
-9,-6,-8,-6,-7,-13,-68,-18
-18,-6,-5,-12,-6,-10,-34,-15
0,0,-3,0,-6,-7,-9,1
3,28,113,11,3,16,42,18
7,24,85,11,7,10,17,-16
-5,-22,110,-13,-7,-5,-31,-14
0,3,-1,-8,-3,-6,-6,5
1,10,53,1,-7,10,1,8
-5,10,31,6,-1,-22,7,10
14,9,-46,-4,6,5,30,23
-2,-13,2,6,7,16,59,6
-16,26,20,2,-5,-12,-67,-51
5,-8,-13,-1,-4,10,-13,-1
3,-12,-36,-2,-4,-6,7,9
1,25,34,1,-3,-7,7,-1
-20,-37,-63,-2,0,-5,-38,-13
17,8,61,6,10,3,-5,4
-6,-3,-97,-2,3,-9,11,21
-7,6,91,-4,-6,11,52,15
8,-2,-108,3,3,9,24,-4
-2,-8,0,-5,-3,-16,-53,-29
-1,6,49,-4,-8,-9,-45,-11
-6,8,2,4,0,4,-10,4
16,6,15,7,3,5,27,31
-2,-1,-4,-20,-2,-2,51,-3
-8,22,127,8,-1,1,0,3
-9,-53,-98,-16,-13,2,21,-11
-6,-16,-128,-6,-5,-9,8,-8
-3,15,33,4,1,-7,-48,-37
3,9,19,4,0,-8,-30,-8
3,5,-2,0,4,3,1,11
8,9,21,-2,-4,-24,8,19
-5,-7,-5,0,1,3,17,13
8,14,28,3,0,16,19,-1
7,3,-42,6,-1,4,-28,-14
-6,-17,98,-17,-7,-5,-9,-12
-25,-16,0,-5,2,-3,3,-6
-5,17,0,3,1,0,10,14
16,15,127,5,3,1,36,31
-4,-52,-128,-11,-5,-8,5,9
-11,15,87,-7,-14,-24,-51,-26
2,-14,-7,-5,-11,-1,-18,-44
3,40,86,17,9,13,-1,-20
3,-9,-71,-10,6,-2,7,8
-17,-18,84,-9,-2,1,9,7
10,9,21,-1,3,3,19,26
2,3,-40,-6,-4,-2,10,14
12,23,127,4,-8,-6,0,7
-8,-27,-128,-20,-11,-6,14,-7
-15,-8,-42,-7,2,-2,-60,-33
3,-2,54,10,-6,-6,-15,-15
-9,-3,-57,1,8,8,2,-6
1,26,12,10,10,2,18,8
-1,-37,21,-21,-6,6,15,23
22,27,34,1,4,14,55,53
-2,-11,-116,2,-4,-8,20,-20
-15,-45,42,-21,-15,-17,-95,-98
-44,-4,69,-6,-7,-11,-51,-22
9,-2,28,7,-3,-4,-1,-2
-11,4,-49,2,-1,0,19,8
9,19,19,11,4,4,18,13
7,12,62,8,6,9,10,16
6,-18,-44,0,5,-5,30,23
11,40,40,-8,-1,3,12,3
-16,-70,-128,-2,-7,-14,-57,-42
-1,24,127,-2,-6,-11,-10,-27
10,-1,-102,-9,-3,5,3,4
-7,-8,-45,-20,-7,-1,-1,-3
-3,3,2,-6,2,-6,0,9
5,9,60,40,10,-1,25,25
4,-10,-128,-6,0,10,12,12
7,13,-13,-7,-4,-4,-19,12
-18,-3,61,-5,-6,-6,-20,-47
-9,1,-74,7,0,-7,-77,-36
-6,-22,-98,-1,-1,4,-6,2
6,19,55,-20,-6,-15,43,25
3,-23,-17,1,-3,-4,35,12
-3,1,25,-4,-6,-2,-17,-8
3,11,23,2,0,-1,-18,-7
9,6,-53,-1,11,8,13,11
-5,2,71,2,-3,0,14,5
-4,-3,27,1,-5,-2,5,2
8,0,-80,-5,-1,4,-11,6
-7,-10,-49,0,0,-7,-9,-2
-11,-10,-91,-1,0,-8,7,-4
-5,-6,119,-4,-1,10,-3,-37
-12,-9,-33,-1,9,8,4,-8
0,8,43,-1,-2,-6,2,11
2,17,56,-3,-8,-9,13,-3
0,-42,-46,-16,-11,-6,-15,-9
3,-1,-19,-5,-2,-8,-28,-11
6,28,127,13,2,0,-3,2
-34,-6,15,4,8,4,8,1
2,-4,25,-11,1,2,17,12
10,25,98,15,1,8,37,20
-10,-4,-128,-16,-4,-1,5,-5
3,-30,-26,2,-3,-8,-25,-16
-12,-31,47,-11,-9,-16,-5,-16
0,-19,-50,-12,-5,8,-3,3
11,12,19,0,-4,-1,13,2
-10,4,-20,-3,0,0,2,0
2,9,69,4,1,1,6,11
7,5,12,2,0,0,11,4
3,7,1,0,1,1,6,9
-3,-7,-10,-1,1,0,1,10
-5,-4,-9,-2,-2,-1,-10,-11
-14,-6,-11,-2,-2,-10,-6,-35
-7,-2,-9,-8,-2,8,-42,-26
12,9,3,0,1,5,21,31
7,47,123,6,-5,-4,48,10
-13,-70,-128,-20,-8,-7,-57,-10
-2,-59,-128,-5,10,3,-7,-9
-38,-6,36,-4,4,4,-37,-30
-8,14,79,-4,-9,-3,-29,-29
2,9,-5,5,-4,-13,13,10
2,6,10,-5,-5,-3,20,15
9,10,17,-3,-6,10,23,13
13,26,69,9,-2,-2,9,13
6,1,-123,-5,3,8,16,18
-1,-73,-28,-12,-1,-4,7,4
-17,-8,-35,-2,-6,-6,-8,-10
-4,-4,47,3,4,17,-4,-2
4,5,36,7,12,3,-3,6
-4,3,7,-1,-1,-10,-12,-28
-2,7,1,-5,0,-5,-13,-7
-1,-3,-20,-3,-2,0,-20,-1
-2,2,-16,-4,0,0,7,6
-4,-2,19,-3,-7,-11,-8,0
2,-2,-40,-4,-1,1,16,20
1,0,6,-2,-5,10,66,3
5,10,15,-3,-4,0,-31,-21
5,1,-90,2,-4,-9,-44,1
-15,-27,114,-13,-5,-1,5,-1
-4,2,-128,4,4,13,23,-1
-17,-25,-83,-5,-3,-17,-10,-7
-8,-28,24,-9,-8,-3,-9,-5
4,12,30,4,10,7,-8,-19
9,16,21,4,0,1,5,6
7,15,11,1,-5,-5,4,5
5,7,5,-2,-4,-1,12,7
4,7,-3,-6,-6,0,3,8
-3,1,14,0,-1,-2,6,6
4,15,-36,-19,5,3,34,44
-9,-43,-91,14,9,1,37,-5
-11,-21,38,-6,-15,-15,-109,-90
14,19,89,2,-3,2,-41,-2
-21,-28,-128,-13,0,-5,14,1
-7,1,-19,-7,-10,-15,8,3
-3,-12,31,-11,-7,-3,-17,-15
3,-3,58,0,-5,11,20,7
7,7,37,-2,-3,8,18,11
3,11,-6,1,1,-1,12,10
4,2,-11,-1,1,-6,7,4
0,3,-11,-1,-3,-2,0,1
-4,12,0,0,-2,-1,-10,-2
-2,1,10,6,10,6,0,-2
-2,-31,-49,-11,5,0,3,2
-14,-10,-76,-11,-9,-21,8,8
5,12,26,6,5,19,49,30
8,1,33,2,1,6,5,-25
-2,14,13,1,-5,-12,-128,-61
-2,-18,84,-12,-11,-18,-55,-10
-2,-17,-39,-8,-8,-13,-15,2
-22,-3,33,-4,0,6,52,-2
-5,3,36,4,3,4,3,-6
6,9,25,5,6,5,50,15
5,22,12,-1,-2,-2,12,15
-3,-40,-92,-4,1,-7,-4,7
-5,-7,-25,-2,-7,-6,-8,-3
8,16,92,-1,-3,-2,-25,-4
9,-5,-106,1,4,-4,1,3
10,-21,-128,-14,-6,8,8,5
-32,-30,71,-4,-7,-8,8,-1
-13,-9,47,-2,-5,-6,-2,-4
-6,8,17,6,6,3,-32,-21
10,16,5,5,10,14,29,41
16,21,23,6,4,-1,82,52
2,-35,-85,1,-2,-10,25,-22
-14,4,55,-12,-15,-3,-128,-96
0,-16,-128,-1,1,-7,-50,-27
2,-1,49,-8,-12,-6,29,15
-3,-12,14,-6,-10,-10,9,17
2,7,12,10,11,7,43,22
-4,9,7,4,4,16,26,14
1,0,-3,-4,1,-3,5,6
3,2,-5,-1,-3,-6,-4,2
-2,-3,-11,-5,-6,-3,-10,0
-4,4,-19,-6,-8,-5,-7,-3
17,10,36,-1,8,7,14,24
10,30,-26,13,9,5,25,5
-10,-71,-106,-16,-4,0,-29,-5
-5,-25,-15,-6,-8,-2,19,-20
-20,-2,40,-7,-9,-11,-77,-71
-18,-4,71,-1,-2,-14,-50,-22
2,3,-39,2,0,-12,-3,5
16,17,2,-1,3,2,12,16
13,7,1,-7,3,8,34,24
15,37,46,12,2,6,28,14
-7,-51,-128,-13,-5,0,-10,-4
-11,-31,124,-10,-15,-8,-1,0
3,9,-10,8,6,5,1,0
-2,10,-33,7,4,-4,-4,0
-8,13,24,-9,-7,1,6,1
7,-11,-41,-8,-2,13,12,4
-4,4,-1,-2,0,-7,-10,-13
0,1,-15,4,2,9,0,1
2,14,68,6,2,11,24,22
9,28,-76,-2,3,3,34,14
-20,-81,-128,-12,-16,-17,-35,-26
-19,-1,96,-9,-13,-18,-61,-41
-1,7,15,7,4,-1,-2,2
1,12,1,2,7,1,12,11
9,5,-11,3,5,8,19,12
19,2,3,-4,0,10,6,19
3,0,37,-1,-3,1,31,19
-30,-12,-126,-5,-6,-26,-16,-37
-9,1,4,-7,-5,-5,-67,-37
1,9,17,6,-1,-3,-10,-1
7,47,127,2,-1,2,8,4
-2,-56,-128,-17,-6,2,9,8
6,-11,-19,-5,-3,9,32,43
6,16,94,-2,4,-2,49,16
-6,0,108,11,5,15,-65,-45
-24,14,37,-9,-16,-22,-43,-42
2,-8,-1,-3,-1,-8,-17,-1
1,2,-10,1,0,3,16,13
11,4,-13,-1,-2,-11,13,4
2,36,33,14,4,9,24,13
-8,-64,-40,-15,-5,13,35,24
2,-32,-60,-13,-6,-4,15,8
-7,24,103,24,2,-5,-17,-14
-16,-82,-128,-30,2,-8,-54,-23
2,12,108,-10,-7,-12,-15,-16
-3,28,70,9,-4,16,13,6
7,-12,25,-1,4,9,55,57
21,8,-128,9,1,-12,61,10
-12,4,-17,-9,3,-2,-78,-50
-24,-25,-63,-21,-18,-16,-72,-53
-7,-11,-12,1,-5,-12,-25,-23
-16,15,14,7,-1,0,12,6
6,4,-15,6,1,3,20,15
9,29,28,3,-1,1,14,14
8,-29,-47,-6,-2,2,16,14
-2,-20,-128,-10,2,3,10,3
-2,1,62,-3,-9,-10,-12,-8
-5,6,92,-3,0,7,-5,0
-13,8,-60,5,3,-9,10,-3
-3,-19,-15,-6,-7,-9,-2,-6
6,29,68,5,-2,-7,-30,-11
5,22,-38,13,3,12,17,16
-9,-49,-10,-31,-11,-5,4,4
10,12,16,4,3,-5,-1,-2
-10,6,9,2,-1,2,-35,0
-1,9,54,1,-2,0,39,9
0,-7,-64,-3,-6,-10,-45,-26
-22,-1,-24,-2,2,-1,-57,-30
0,9,78,-1,0,-6,21,-8
-3,-35,-9,-4,-6,-6,15,12
10,0,-18,-9,-3,-3,15,14
7,-8,-128,-1,4,14,16,21
14,32,51,11,2,-8,24,16
-12,15,120,-3,-3,-2,5,-1
4,-36,-119,12,6,5,-18,-8
-20,-60,3,-35,-12,-9,-9,-9
-4,25,127,8,0,-9,-3,-4
4,-11,-128,-4,2,9,2,0
7,14,85,3,1,-5,11,14
-1,8,32,-1,-1,-4,8,1
15,9,-23,1,-6,-3,-6,8
10,12,32,-2,-10,-15,11,12
-13,11,-15,5,7,-1,16,-14
-22,-31,-66,-10,0,3,-63,-39
-11,15,25,4,-3,18,10,3
-7,-24,-76,-4,-3,-4,-22,-11
2,-7,-38,3,0,2,-13,-13
12,-39,20,-6,-4,-3,12,12
-12,15,-82,-13,-7,-8,4,0
5,-13,25,2,-2,-8,-21,10
11,-31,-128,-12,0,2,31,22
2,14,64,6,0,1,78,8
3,4,10,3,-1,5,-51,-25
-22,-9,-27,-2,0,-8,-19,-1
-5,4,14,8,12,1,38,19
-8,-3,11,0,2,-1,-15,-13
0,2,2,-3,-5,-2,-28,-15
-2,-2,-2,-5,-10,-10,-30,-18
6,4,-6,-5,-10,-5,1,5
4,-3,1,1,-2,2,12,4
0,-5,-9,7,17,10,14,12
7,5,4,-7,11,5,28,23
4,7,-57,-5,0,-2,8,0
-1,31,127,17,-8,-7,-48,-25
-12,-77,-128,-22,-13,-13,-19,-13
-25,-8,-34,-4,-6,-4,-11,-27
-2,-7,-25,-1,-5,-7,27,15
4,4,13,0,-2,0,19,0
2,4,7,-3,-9,-6,-43,-15
2,5,1,0,-6,-7,-19,-8
-2,0,-1,8,10,6,10,6
4,3,-8,3,16,1,9,10
-1,-2,-6,0,2,6,-18,0
2,-1,-8,-5,-3,4,-1,0
4,15,42,0,-2,0,70,12
25,86,109,20,7,13,26,27
7,-117,-128,-14,-4,-5,16,6
-35,-51,-51,-25,-15,-25,-57,-47
-21,-1,25,0,-16,-17,-50,-35
-9,18,55,11,-4,10,9,-2
2,16,45,6,0,-1,18,8
8,17,73,3,0,-5,-45,-12
6,-2,-125,-7,3,5,-5,5
0,3,18,3,-3,-4,9,5
6,-1,-6,2,0,-6,7,6
-1,-3,-25,0,2,1,9,3
2,6,-16,1,4,6,10,7
10,39,127,5,8,-4,13,12
-12,-97,-128,-11,-1,0,-2,-8
-1,-10,11,-4,-6,5,-33,-21
10,10,47,0,-5,2,9,18
-13,-7,-72,-2,-9,-10,56,8
-13,10,-10,-4,-2,-4,-6,-22
-1,8,43,2,-7,-13,-47,-26
-1,1,-4,0,-3,-3,-28,-18
3,-1,0,-1,-1,-3,2,6
5,5,-4,-1,6,-3,11,10
1,-1,-8,-2,3,6,9,5
-2,2,0,2,1,4,17,24
9,4,25,0,-4,3,26,19
23,6,-36,7,5,0,1,-11
-24,-20,-91,-12,-7,-5,-43,-37
-31,-4,74,-2,-9,-14,-28,-17
5,-10,-30,-4,-5,-4,7,3
-1,-8,48,3,2,-2,25,10
4,0,-40,6,-3,-2,-4,1
1,-9,37,-4,6,3,-14,1
-3,-1,-52,-1,3,0,-24,-25
3,6,27,-2,0,-2,-3,-1
3,5,3,-1,-4,-2,6,6
4,44,127,8,5,4,13,8
18,46,22,15,6,7,19,34
2,-38,67,-38,-6,5,32,28
-20,-7,127,14,-9,-12,4,-30
-10,21,14,-9,-7,-14,-98,-72
-10,10,58,-1,-1,15,3,14
-12,-13,-57,-6,-10,-6,31,1
14,8,-92,2,0,-3,-13,-19
-16,5,3,0,-9,-18,-48,-14
-8,3,10,5,7,-1,-11,-3
-7,7,25,8,7,7,11,8
0,-14,-78,-7,8,10,19,11
13,1,22,-9,-3,0,16,11
2,-2,-33,-3,-7,-9,7,4
1,3,24,-5,-3,3,1,1
-7,-8,-4,-4,-6,-2,3,-4
-1,-3,-34,0,0,-4,-20,2
2,-1,-6,-1,-2,-1,2,3
13,52,94,13,3,-3,51,9
-2,-72,-128,-6,1,-5,-15,1
-1,12,127,-6,-5,6,-5,-10
-27,-28,-128,-14,-8,-7,-19,-31
-25,-6,17,-4,-8,-11,-10,1
17,14,54,6,-1,-4,8,5
1,3,15,-6,-5,-4,22,15
13,8,3,1,2,6,-14,5
8,61,116,23,12,10,14,6
1,-57,-128,5,6,-6,14,-2
-16,-35,-6,-26,-18,-15,-31,-21
-10,-1,28,3,-4,-7,-27,-29
-6,1,25,2,0,-5,-47,-29
-8,17,41,3,4,6,11,9
4,21,-4,23,7,3,12,12
3,-17,20,-24,-8,0,18,9
19,-39,-128,-20,0,-2,3,12
-4,6,127,0,-13,-11,-7,-12
-15,8,94,7,-2,-3,26,2
1,4,8,0,1,-1,8,-7
9,-1,-55,0,-4,-4,-21,1
-8,-7,17,0,-4,-8,-13,-5
-10,17,77,-3,2,11,3,-5
10,-13,-55,6,16,19,4,4
4,33,69,-1,0,-4,1,11
3,-44,12,-5,1,4,37,15
-2,0,-128,9,0,-4,15,-6
7,-19,88,-25,-12,-8,-40,-6
0,25,8,1,-5,-7,-16,-10
-3,-14,90,15,2,4,-10,-18
-13,-84,-128,-25,-13,-18,1,-2
-13,15,38,-4,-6,-13,19,17
-6,5,12,-1,-1,-1,-8,1
2,35,96,10,0,24,-13,-19
1,-34,-128,-13,5,1,2,4
15,55,117,14,0,-14,2,12
13,2,127,15,3,6,22,28
-10,-22,-88,-28,-14,-12,15,-10
1,15,31,6,2,0,-64,-27
-5,18,28,17,2,-2,-12,1
-8,-15,-87,-20,-5,-4,0,1
9,32,42,6,3,6,26,6
1,-22,-110,-8,-1,-1,9,5
-9,-60,10,-9,-3,-6,6,13
2,7,-14,10,0,0,20,7
2,-5,7,0,0,4,-4,-17
2,3,-45,-11,-8,-7,-28,-11
7,7,23,-7,-4,-6,-39,-4
-25,4,19,0,3,-1,18,7
-3,20,62,6,6,0,-1,-31
0,-13,-44,1,2,-1,3,-8
-8,-4,-7,0,-5,-11,-22,-9
-7,-2,90,-11,-10,6,4,9
-3,0,-56,1,-7,2,10,8
0,-2,41,-1,-5,-4,-7,1
13,9,-90,13,17,9,5,10
8,3,-41,-1,3,-2,2,-3
-11,4,79,4,-6,-15,-4,-5
2,-7,-128,-14,-5,-1,8,15
3,11,19,1,2,17,12,5
-4,3,-19,-6,-2,-5,-16,-14
2,27,64,5,1,-1,-21,-12
-5,-51,-128,-14,-5,-1,-1,1
4,21,112,12,2,-2,-22,-6
-4,-35,-128,-18,-8,-10,0,-7
4,1,-103,-4,-6,0,-1,4
-5,-8,-19,-5,-6,-5,-4,4
-8,-25,-14,-16,-6,-10,3,1
-3,4,19,5,-1,7,0,4
3,7,2,2,-2,-3,24,2
8,14,7,3,1,1,-12,-5
2,26,38,4,-2,-1,-13,4
-4,-4,-72,1,10,2,31,6
4,-12,61,-9,-11,-9,12,0
0,-6,0,1,4,1,-21,6
-20,10,11,7,2,-2,8,-5
-6,1,-15,-14,-10,-4,-48,-20
1,-12,-41,6,5,0,-2,2
-11,-9,23,0,-2,-1,4,4
-17,13,72,4,0,-9,-15,-11
6,7,0,11,0,-2,-6,5
5,-11,-124,-10,-5,0,8,-1
-1,16,76,1,2,5,8,9
7,1,-124,7,10,6,9,9
-2,-5,38,-11,-2,16,-6,-9
10,4,4,-6,5,-6,-10,1
-2,-2,-5,0,-4,-8,-5,3
-1,1,1,2,0,10,5,-4
-2,0,28,-5,-8,-2,15,7
7,24,-15,1,2,2,7,0
0,-9,61,3,-2,-7,-19,-18
-5,-14,58,-16,-7,-6,-34,-2
-7,-5,33,-4,-5,-7,-17,-9
-8,-16,-101,-3,-7,-4,31,-26
-9,-11,-103,-6,-2,0,3,3
3,6,7,6,-4,0,8,5
8,12,12,1,0,1,3,9
18,26,19,3,3,3,2,18
2,17,65,3,7,12,9,11
-27,-40,-111,-3,1,2,14,2
-10,-5,127,-21,-21,-29,-33,-54
9,0,24,-1,-6,-10,-30,-19
-12,12,17,6,4,2,-18,-6
-13,-10,-13,2,2,1,-4,0
6,10,27,3,1,3,9,8
9,10,14,0,-3,0,6,10
7,4,5,-6,-14,-9,8,7
4,3,3,2,-4,2,5,2
-8,4,5,12,19,15,15,9
26,10,17,10,13,21,32,40
26,31,62,14,12,11,39,5
-8,19,-45,5,-6,-21,-83,-47
-48,-63,-10,-27,-21,-13,-65,-36
-11,-4,3,2,-13,-2,62,1
-2,45,95,11,-11,-9,13,-27
-20,-93,-128,-35,-13,-9,-87,-37
6,24,26,10,4,-1,-10,7
8,10,15,3,11,12,16,18
7,7,-22,8,4,1,25,9
1,10,52,6,2,5,-13,-2
6,15,33,1,1,2,19,18
0,7,-83,-4,-2,2,23,22
9,8,37,0,3,-4,18,6
0,-25,29,-10,-7,-10,-32,-18
-19,0,69,-7,-16,-16,-28,-28
-20,-32,-36,-5,-4,-4,-2,-8
-3,-5,-18,1,-1,0,9,6
6,5,6,0,2,1,-21,-7
8,18,7,2,1,0,2,5
2,-10,-30,-8,-5,-8,-1,2
1,16,30,10,3,4,2,4
-5,-14,-52,-10,10,31,23,9
8,-1,-10,2,5,0,-8,9
4,5,72,8,-2,-4,9,-1
-6,-11,-54,-3,-9,-10,-6,-15
-30,1,-60,-4,-5,-7,-21,-10
1,-1,51,3,-5,7,-2,-2
2,-8,6,-1,5,0,0,3
3,12,27,-9,-5,-1,-5,-2
7,32,35,1,-5,-4,1,8
4,-20,-20,6,4,-1,10,6
-3,-13,30,-12,-5,2,19,24
-6,-25,-126,-1,-1,-3,-28,-25
-13,-17,-34,0,3,-5,-19,-33
-16,0,22,-4,-6,-8,-24,-22
4,4,35,3,-3,-5,-3,-13
7,-9,-83,2,0,-6,4,13
-16,11,8,-5,-6,-4,-2,-2
-1,2,-9,-1,-1,2,8,2
7,1,16,0,-6,-5,16,11
14,22,7,9,1,0,21,20
13,-14,-30,-9,3,12,3,-5
-5,-20,-74,-8,-1,-11,-55,-19
-11,10,92,-11,-1,-2,-13,-1
1,2,-33,5,-1,17,52,6
-10,-7,7,-3,-8,-3,19,7
-10,5,6,3,1,-16,-15,-6
-6,1,54,0,-4,-8,-20,-21
7,-1,-97,-6,-1,6,2,28
16,39,115,5,3,14,58,39
10,-23,-128,6,8,-2,40,8
-20,-37,96,-15,-11,-17,-37,-69
-22,-16,-13,-17,-9,-13,-93,-41
5,9,37,-3,0,-2,-17,-7
-4,-11,-65,-8,-3,0,11,10
6,0,-22,21,5,-1,15,11
6,15,75,1,5,8,25,20
7,5,-83,4,1,-6,22,26
-9,5,-5,-3,-2,0,12,-9
1,1,9,-4,-1,0,-36,-21
6,18,19,12,2,-4,-17,-24
-13,-38,-53,-21,-7,-5,-2,-2
-19,-5,29,-2,-2,0,9,0
10,22,19,5,2,3,25,26
11,-10,36,-4,0,2,37,20
-9,-24,-128,-9,-9,-14,-50,-38
-12,5,87,-5,-3,-1,-34,-26
-1,2,51,2,-2,-4,-6,10
0,5,8,2,-1,-2,-3,-20
2,5,25,3,4,-1,-4,-4
2,13,-47,7,4,1,16,4
-5,-13,-23,2,-1,7,5,3
1,0,-13,-8,-5,-2,10,4
7,3,-13,-2,1,4,-7,6
2,11,32,3,3,-8,-20,0
-10,-15,-58,-7,-3,-1,-14,2
-2,-13,-62,-10,-5,4,58,10
-1,-7,-1,-4,-4,0,1,-9
-3,-3,1,-12,-15,-8,-39,-13
-5,12,42,4,1,-11,-10,11
10,-12,16,-9,3,7,10,-12
5,3,3,5,5,21,-27,-2
-22,10,-75,-4,-3,-6,8,-4
-1,-17,-61,-2,-2,-5,15,-9
-4,7,27,0,-13,-12,-25,-19
9,28,65,1,-2,-5,3,18
3,-34,-64,-8,-4,2,5,-10
0,-9,-92,12,11,1,-36,-18
-2,10,12,9,3,5,0,1
-10,4,80,-11,-10,-5,-4,-6
2,13,23,0,-3,-1,9,4
-6,17,77,8,5,2,10,5
0,2,-37,0,4,-2,12,12
11,-34,-95,-10,-1,-3,9,8
8,9,-22,-7,-1,2,2,6
5,-7,68,4,-4,-6,-2,-7
-14,-2,10,-9,-12,-7,-15,-25
8,-16,-54,-2,-1,1,11,25
-1,-5,53,-3,-2,3,45,26
-16,-4,-48,-5,-3,-7,8,-9
-4,-6,-5,-3,-7,-12,-128,-85
-1,1,-39,-7,4,0,34,-8
-6,-2,18,3,-3,-4,-9,-20
4,5,8,1,0,-2,8,14
3,9,16,-2,0,-7,9,11
-2,-12,-9,6,-1,19,5,7
4,20,-42,3,3,7,13,7
-7,-79,16,-22,-3,-4,6,-1
0,10,94,1,-4,-6,-3,2
-7,4,-27,-1,-2,-6,-7,-5
1,6,-34,6,0,-5,-5,-1
5,-20,4,-7,-2,1,4,-3
-1,5,-47,5,12,3,-1,6
18,18,21,-9,1,3,17,31
-9,11,-35,2,2,5,30,-2
-22,-48,-20,-12,-9,-27,-26,-38
-75,-31,-9,-7,-14,-15,-57,-50
-2,5,20,4,-3,-8,-36,-25
13,13,17,3,1,7,6,5
13,7,-26,-5,-6,4,21,14
8,20,8,1,0,2,13,15
6,-4,73,7,9,1,13,11
8,-58,-128,-17,3,-5,9,13
-9,23,97,4,-4,2,13,4
-5,-7,7,-18,-8,-4,7,-1
-9,-7,-6,2,-7,-11,-38,-22
11,11,8,2,6,-1,-38,-8
5,13,-1,8,1,2,-6,10
4,38,45,20,7,2,59,2
-13,-66,-34,-16,-3,-2,22,-25
-6,-15,1,-24,-17,-9,4,1
9,7,4,2,-1,16,10,5
-4,5,-3,4,2,-2,-5,-4
-6,10,28,11,0,-8,-17,6
2,4,-45,-2,-2,-4,0,17
-3,-2,-14,-4,-1,3,-4,-4
12,27,31,4,-2,5,-6,-18
-6,-26,-99,1,-1,-8,13,-6
9,-12,-47,-2,5,4,-43,-3
7,-6,38,-1,-4,-4,-18,-29
-23,21,25,4,-6,-13,-51,-29
-7,-32,-20,-14,-5,6,34,1
4,14,46,-4,0,5,15,12
9,-37,-56,-10,-4,-7,-5,3
3,11,42,1,1,-3,-22,9
2,8,-12,3,-4,2,53,14
2,9,21,2,-4,-2,16,4
-8,-6,-6,1,0,-2,-3,0
6,-1,7,-7,0,-1,-5,3
-1,-1,-6,-4,5,0,13,7
8,18,21,0,3,4,14,25
12,15,-56,26,5,12,28,-3
-21,-25,120,-13,-6,-7,-92,-48
-30,-43,-128,-22,-13,-19,-40,-30
-16,-43,71,-16,-17,-14,0,-8
6,11,60,0,1,-1,18,15
0,14,47,5,3,-3,18,8
2,9,1,3,2,-1,-3,-2
7,17,9,-2,4,21,1,10
8,-1,-33,-9,0,3,14,16
-2,-2,-47,3,-5,-6,7,0
-6,17,34,2,-7,-14,-26,-20
-12,-78,-128,-13,1,-4,7,-8
6,28,127,7,-3,-2,19,10
-5,-23,-128,-12,-8,-5,-10,1
-8,-27,5,-10,-14,-12,-38,-8
1,-3,-7,-2,0,-4,-16,-5
-2,6,53,4,0,3,61,6
10,14,11,3,9,4,12,23
8,9,-11,2,3,4,16,7
4,17,11,2,1,1,-6,-24
-14,3,116,1,-1,-6,-43,-16
-16,-20,-128,-8,-7,-8,-22,-14
-17,-30,127,-27,-23,-24,-15,-5
4,5,95,5,-4,5,2,0
8,18,13,8,6,5,6,5
9,14,7,5,3,4,8,8
7,48,107,6,9,4,9,6
10,-42,-128,0,1,0,16,14
-12,-53,-120,-30,-14,-10,5,0
-6,19,-32,13,3,2,-15,-19
-2,-5,95,-3,-6,-1,-43,-23
4,9,19,-1,1,-9,-9,3
-2,16,-5,9,0,-7,24,12
4,28,18,-1,4,4,17,10
-16,-70,-128,-5,-7,-4,8,0
0,-6,64,-12,-8,-3,-20,8
8,28,74,-1,1,0,28,-8
-9,-26,-110,-7,-1,6,-63,-38
-2,-1,79,21,3,-6,-15,-11
4,5,17,5,4,-2,4,9
5,10,-39,3,-3,0,19,14
2,-1,32,-4,-5,1,-10,14
-1,-4,-71,-7,0,11,22,10
10,17,-1,5,-4,-7,4,-3
8,1,14,-1,-1,-5,-14,-9
-17,9,40,6,3,8,4,-2
-11,-33,32,-22,-9,-4,2,-1
5,22,-41,1,-5,3,2,10
8,2,2,5,1,-9,8,3
-9,-26,81,-8,-8,-9,-42,-14
2,11,10,3,1,0,25,8
-3,4,3,4,2,0,-23,-16
-2,11,-37,7,6,-2,-39,-11
12,8,114,1,5,2,2,14
0,-18,-83,-9,-5,5,19,-4
10,8,-15,1,-4,1,6,-1
-7,41,127,9,8,-3,-37,-13
-41,-65,-128,-7,2,-2,3,-4
-11,-14,10,-5,1,10,-14,7
5,19,36,3,-3,-4,16,15
7,6,-39,-5,5,-5,38,7
-19,-31,127,-22,-19,-15,-14,-17
-2,-11,53,0,-5,10,7,4
7,-3,-60,4,0,0,-10,8
0,-13,-128,-11,-3,-4,2,-2
4,16,30,-1,-1,-5,-6,-1
0,15,48,-8,-13,-11,-26,-11
12,10,5,3,-1,5,4,11
7,10,26,34,15,12,23,9
9,3,14,-1,3,1,23,20
-21,-14,-6,-1,-5,2,16,-4
-36,-16,-39,-10,-5,-6,-54,-37
-2,11,-128,5,-4,-9,-22,-24
-13,-31,23,-20,-7,-6,-2,2
20,24,89,-5,-4,7,13,16
8,-33,-83,-1,-4,-6,30,9
-5,9,15,2,-9,-8,-7,1
6,10,25,9,1,16,4,23
-15,-18,-81,-1,6,4,12,-2
-16,-29,-57,-6,7,0,42,0
8,-21,-19,1,1,7,-13,-10
1,24,113,5,0,-7,-38,-19
0,27,-3,5,-5,-10,-18,-3
-18,-31,61,-15,-13,-3,10,-2
11,1,42,-6,-5,5,16,13
1,20,33,4,-1,-9,-15,6
2,11,31,7,4,2,6,16
-22,-12,71,-3,4,4,14,-31
0,2,-79,-7,-4,-2,-50,-17
7,27,-6,16,2,-2,-4,4
-4,3,77,-19,-8,-2,3,9
2,-63,-128,-15,-4,-1,9,2
11,3,29,-8,-2,1,22,0
5,-18,-128,-10,-2,1,-2,7
-33,0,29,-1,-3,-1,-1,-7
-8,-5,-9,4,1,-2,10,-1
-11,7,16,1,0,-4,-4,-4
0,3,4,2,1,-2,-20,-4
4,6,-6,-1,-4,-2,25,4
6,15,45,0,4,-6,-16,-12
7,5,-63,1,0,13,-6,-4
-11,-30,63,-5,-4,-5,-31,-15
8,5,17,-1,-6,3,-20,0
13,-3,7,-6,-2,-4,43,25
-3,10,-10,5,1,-11,44,8
-8,7,21,-2,4,2,-43,-8
-5,19,28,14,1,-1,-33,-21
-13,-36,-97,-6,1,-4,-17,-23
-13,-7,19,-7,-4,-5,-27,-6
-1,9,39,0,0,-8,-9,-3
6,8,61,0,-3,-1,15,6
2,-23,-13,-1,5,2,8,12
-5,21,43,3,2,-3,8,5
11,-6,-18,8,2,1,9,4
-9,-48,-128,-31,-14,-7,-1,1
7,2,30,-8,-7,6,-11,12
3,22,127,9,-2,-4,10,17
-13,-21,-44,-2,5,-1,39,-9
-8,-4,19,7,2,-3,-20,-33
-20,12,-28,11,6,-1,-14,-10
5,48,127,5,1,-1,1,5
22,-39,-128,-14,-1,1,19,26
-5,-29,-23,2,-11,-4,34,11
-38,-38,74,-2,-12,-13,-55,-31
5,-25,-66,-12,-6,-8,-75,-46
-1,16,36,10,2,1,-25,-13
-2,8,59,-1,1,-2,33,4
2,8,4,4,3,-1,17,11
7,10,16,1,5,17,16,7
28,27,-8,5,5,8,14,31
-10,11,18,-4,-3,-4,34,24
-11,-36,33,-1,-8,6,24,2
-26,-60,-128,-32,-13,-18,-88,-60
-10,1,37,1,-2,-9,-12,-13
-10,11,32,11,5,1,-11,-5
0,12,12,5,8,7,10,10
7,8,10,0,1,4,10,4
3,6,32,-4,-4,-1,-5,9
2,51,25,7,0,3,11,11
23,-47,-128,-10,0,6,18,26
-1,-21,121,-12,-10,-8,33,-22
-17,12,126,6,-6,-15,-40,-31
-42,-14,-125,6,5,-4,-42,-30
-15,-3,50,1,2,-4,-15,-15
3,12,21,3,-1,4,8,7
9,8,-6,-2,-1,-1,7,8
6,5,-5,-7,-3,2,8,6
8,9,39,1,-6,0,3,6
14,15,1,1,4,4,9,12
12,37,43,11,0,1,10,10
-11,-10,110,9,-7,-10,-34,-3
-13,-54,-19,-16,-16,-10,-2,-25
-37,-19,2,-8,-1,-7,-12,-21
-13,-54,-19,-16,-16,-10,-2,-25
-37,-19,2,-8,-1,-7,-12,-21
1,7,-5,5,6,4,3,-1
8,17,-5,3,2,1,-2,-3
