Channel_1,Channel_2,Channel_3,Channel_4,Channel_5,Channel_6,Channel_7,Channel_8
-9,-30,-68,-20,-7,-25,-109,-47
36,22,-128,-2,34,43,81,50
-26,24,127,18,-25,-20,60,-11
5,13,36,-14,-13,-7,-13,0
-7,-11,70,-42,-26,-9,-18,-5
-7,-12,-28,-39,-7,-2,-14,-3
-6,4,36,69,12,4,-8,-9
18,41,-9,12,50,14,4,10
-9,-20,-128,-26,-12,-12,-9,-6
-21,-83,65,-23,-29,-10,3,-6
-20,-48,14,17,-9,-11,-28,-11
9,37,46,24,25,9,36,9
4,20,-8,5,-2,5,8,5
-3,-5,-96,-17,-14,-10,-9,-3
-6,1,12,21,3,-8,-53,-16
-9,14,68,-23,-13,-14,-25,-20
24,0,-128,63,15,17,20,31
0,-3,-64,-35,20,-1,7,5
-15,1,127,-12,-12,-9,-10,-11
-8,-5,-28,-21,-9,-12,-13,-7
-10,-74,-116,7,-10,-4,-46,-10
6,17,-28,-40,-13,-3,-103,2
1,12,39,40,-2,1,52,4
14,29,28,46,66,15,12,8
22,72,30,33,33,18,-86,5
-13,-61,18,23,11,-10,64,-4
-26,-49,87,-66,-31,-17,-43,-19
-8,34,29,19,-19,-2,44,-1
-2,4,-11,2,13,-4,-1,5
4,40,10,-18,-4,1,-45,-10
10,-25,4,3,0,9,63,13
0,13,24,-2,-1,2,-2,1
-5,33,127,22,-3,-6,-32,-12
-13,-66,-98,-18,-13,-14,70,-4
7,-12,-15,17,12,3,-26,0
7,31,69,-4,-7,-6,-128,2
6,26,25,-2,-3,6,-35,10
-11,-6,-29,-3,-5,0,100,-2
1,12,76,-1,-11,-2,-2,-6
-9,-16,-65,-4,-7,-13,-33,-9
22,47,3,8,14,18,34,34
9,9,-16,-21,1,0,41,10
7,42,17,-2,6,5,-30,8
-1,-8,9,14,-6,-2,81,0
-3,2,50,-26,-7,-3,-5,-5
-14,-19,-23,28,-2,-4,56,-7
1,-9,-4,21,10,2,-22,-1
-1,2,5,-14,-8,-1,-7,0
8,17,13,-36,-17,-4,-21,-1
-10,-9,-30,-12,-22,-22,-44,-11
17,53,127,21,48,11,-6,17
-4,-12,27,-5,-5,0,47,-1
-14,-63,15,-20,-17,-5,22,-7
-3,1,31,-12,-2,-6,-40,-7
3,5,3,6,-6,2,5,6
-9,6,-44,-32,-9,-7,-11,-9
-2,-3,25,1,-6,-9,-11,-6
10,63,32,32,11,-1,-114,2
-13,-50,-77,-7,-8,-1,109,-7
4,-47,-128,-18,3,9,78,12
3,10,65,-4,2,5,51,4
0,22,37,-39,-31,-22,-68,-14
-7,-39,14,30,13,1,-37,-11
4,-7,-55,-22,5,9,0,11
3,29,-33,48,12,0,-11,3
1,49,127,19,-5,-5,-17,-1
-1,-61,-103,-53,-4,0,-8,-1
-19,-43,-104,-7,-15,-13,-24,-15
-2,-21,21,-10,-4,-1,1,2
15,34,-38,5,19,10,7,9
-9,76,127,28,-9,-19,-125,-8
-13,-24,119,11,-8,-5,52,4
7,0,15,-10,-13,8,127,32
2,-5,-121,-31,-3,3,-31,2
-16,11,25,11,-14,-20,-56,-17
1,11,37,13,3,-2,-32,-1
5,2,-16,-3,5,4,14,-1
-4,-1,-21,-8,3,-1,-9,-7
8,5,-22,-21,-5,2,36,8
-5,-23,-60,22,4,-8,-26,-2
0,22,11,9,4,3,-12,-9
-7,-26,8,-4,-1,-3,-32,2
-5,3,2,-31,-6,-3,-50,-24
8,22,71,26,6,10,74,12
5,-10,-83,-22,1,3,6,8
-5,10,43,11,-6,-1,43,2
5,22,13,-7,-13,0,-10,-2
-4,-3,49,39,36,0,-17,-13
-6,-35,-7,-20,2,-5,-32,-6
-10,5,105,-25,-25,-14,-29,-2
-20,-61,39,27,-16,-6,5,-15
6,3,-26,8,28,7,11,8
-10,20,127,-7,-3,-1,-1,0
-4,4,-100,-16,-12,-6,-5,-2
3,-6,3,-36,-4,6,2,4
0,10,80,26,12,-2,-8,-4
3,49,11,23,5,-10,-23,-3
5,-48,-114,-11,-1,6,17,5
-24,-40,116,-29,-25,-18,-106,-29
-10,-10,18,9,-17,-4,127,13
16,32,32,5,26,16,49,11
5,-15,-105,-13,7,2,3,10
-5,22,127,-55,-20,-10,-23,-8
-9,15,-22,82,2,-12,-43,-14
15,24,-75,-11,12,12,-4,7
-3,-35,-49,-7,3,2,-53,-17
11,14,15,10,10,19,-17,21
-8,5,8,-13,-10,-9,28,-8
8,4,28,-5,-2,0,-62,4
-5,22,57,3,4,-4,98,-5
-4,-39,-128,-9,1,2,16,-1
-10,24,127,-1,-5,-7,7,-11
-3,22,64,-10,-8,-4,-30,-6
1,-12,-65,10,1,-7,-22,-3
8,8,25,-32,3,0,0,4
1,11,-6,33,4,1,-4,2
-10,-38,43,-19,-8,-2,-4,-2
3,17,-29,-50,-33,-23,-60,-18
6,-23,-128,54,26,5,7,23
-10,11,73,-8,-10,-5,18,1
-1,23,53,-10,-7,-11,-33,-4
28,89,58,16,16,13,-128,-1
-19,-118,-128,-39,-11,3,123,4
-5,-38,55,-13,-14,-4,-9,-2
-2,7,102,-1,-6,1,-1,-6
-7,-9,-46,-8,-6,-7,-28,-11
2,14,3,11,1,-2,-63,-7
2,14,-1,-11,2,8,108,4
-2,14,33,8,-1,-4,0,-1
8,12,14,-6,3,6,38,9
-21,-22,48,21,-4,-17,-44,-17
-4,-35,-128,-19,-6,-1,-27,-5
-2,-7,32,-4,-6,-5,-11,-7
6,10,51,-8,-2,0,-37,1
0,11,41,1,-3,1,50,4
-5,5,0,-21,-14,-9,-1,-2
2,-10,-7,15,-4,4,3,3
7,9,-29,6,12,10,-20,2
-5,5,127,-37,-3,3,55,-4
-17,-10,16,22,-3,-12,-23,-31
0,-88,-65,-8,-6,8,15,10
-3,-12,-31,-1,-6,-5,0,-2
11,19,-24,0,7,4,1,4
-5,2,-9,-15,-15,-19,-34,-9
-6,-19,-78,-19,-7,-9,-128,-5
2,-7,-33,9,1,0,93,1
10,39,88,12,11,-8,-121,-5
4,6,127,10,-6,-1,-48,1
0,-26,-128,-31,-3,3,24,7
-7,42,127,16,-8,-6,-33,-5
-1,5,73,12,1,-1,-7,0
9,37,52,-2,0,3,-27,-2
-5,-61,-81,13,3,-3,-11,-3
1,-13,-66,-9,2,-2,-29,-4
7,18,42,18,0,0,46,-1
5,21,27,1,6,8,8,7
-11,-5,23,6,-13,-12,-22,-12
-8,-44,-88,-3,0,-5,4,2
8,20,-42,3,4,0,21,1
-2,4,-26,-36,-19,-16,-21,-4
-4,-40,-30,3,-6,1,-25,-5
-10,-23,-48,-13,15,-3,-24,-14
27,55,34,10,20,24,38,20
-28,-35,-4,-43,-35,-20,10,-10
-6,-15,13,46,14,-7,-11,-7
16,43,73,19,5,-7,-96,-5
-8,-79,-128,-13,-6,5,-86,7
-17,-8,127,-15,-32,-20,69,-9
0,9,-13,-32,5,2,-9,1
10,8,-39,-57,-11,2,-37,3
-14,-36,-91,11,19,2,-15,-2
-10,-7,85,34,11,-3,-41,-11
4,41,22,12,-12,-5,-10,7
10,20,9,-6,-6,0,-77,1
-16,-23,4,-15,-14,-8,116,-8
6,15,-32,2,2,0,27,1
-4,12,79,-12,-4,-3,-6,-3
-2,-45,-118,-6,0,2,-6,-2
-9,-33,-128,-16,-10,-12,-42,-13
-5,17,78,2,2,1,-10,4
-8,-6,49,0,-8,-3,115,-2
-7,-16,-31,-4,-12,-20,-40,-7
1,5,33,1,2,-1,-17,2
18,63,52,22,6,5,-11,5
3,-2,-128,-12,1,2,-1,6
4,42,127,24,-5,-8,-5,1
4,1,65,1,6,7,1,-7
-26,-65,-82,-110,-52,-26,-19,-21
2,19,76,106,21,10,3,11
0,6,12,27,22,-2,-12,4
8,31,29,5,5,7,8,7
8,12,67,8,2,0,-7,-6
-8,-56,-128,-36,-7,-2,-79,-22
15,21,62,-9,-1,9,-81,15
4,48,81,19,-7,-4,69,-1
-4,-21,27,-8,-6,0,6,-2
-19,-13,1,2,-17,-16,-22,-10
2,4,-56,-7,10,-1,-27,0
8,12,6,-1,6,3,-83,4
7,24,14,-2,-7,-15,-1,-20
7,11,-97,-20,4,14,54,21
0,17,119,24,2,2,-3,3
-8,-31,-120,-25,2,1,-9,-6
-5,46,98,44,-4,-7,-18,-17
10,-23,25,-15,9,18,26,13
-14,-68,-128,-43,-20,-6,19,-4
4,20,127,24,-5,-7,-79,-2
0,43,75,-4,-9,0,29,-7
12,-3,12,29,16,4,32,18
-14,-66,-128,-22,14,-6,-12,-7
0,55,127,-13,-16,-7,-20,-7
-10,-55,-46,30,5,3,-11,-1
-5,-15,9,-43,5,0,-4,-1
-12,5,-26,-11,-25,-14,-19,-14
4,20,20,-35,2,3,6,-4
-9,22,29,17,-9,-15,-18,-9
-6,-69,-128,-1,-10,-6,-2,-5
6,-11,-22,-1,-1,4,22,13
-6,-11,9,17,-2,-10,-113,-18
12,50,-51,-8,16,16,-7,14
-4,32,127,21,10,6,21,1
-11,-87,-128,-33,-13,-12,-43,-13
-14,-24,95,-12,-14,-6,17,-6
-5,22,56,0,4,0,-22,-2
2,15,-2,1,-5,-6,-104,-2
-6,3,10,-6,-10,-25,1,-28
13,1,-2,5,7,14,31,26
-2,-2,-41,-6,-6,-8,-9,-2
-1,-11,-47,10,-2,-8,35,0
-1,4,88,-12,3,-1,-18,-8
-7,2,-100,-2,-4,-1,-23,-24
18,30,53,4,9,19,48,23
2,-2,-128,-12,-12,-13,-20,9
13,44,66,0,18,3,-83,9
-42,-120,-66,-22,-37,-15,120,-14
-12,-8,58,-53,-17,-9,-13,-12
11,44,53,39,17,-1,-55,-14
3,3,-128,-7,-2,12,-6,7
-11,-13,47,57,2,-12,25,-5
2,-3,-30,-33,-2,0,72,10
0,-4,-12,-44,-18,-5,-9,0
7,15,14,13,-1,1,-9,-1
2,34,14,45,16,-4,-13,0
-6,-50,-122,-7,0,-3,-13,-10
11,20,-107,-12,6,10,-26,5
-3,7,94,-15,-18,-18,93,-5
-5,-29,-18,-13,-8,-4,-62,-1
23,54,127,8,6,16,20,10
-16,-72,-128,-1,-11,-19,-16,-6
-4,-28,-34,-24,-9,-9,-3,-12
-2,15,98,7,5,2,-62,-15
11,29,20,13,18,21,-107,17
3,-13,-73,-13,-13,-10,71,34
14,1,-97,-11,4,9,-58,15
-14,10,127,13,-7,-24,76,-16
-9,-12,-23,-22,-21,-12,45,-9
-13,-26,-48,-3,-4,-11,-41,-12
15,71,127,7,6,10,-25,0
2,-16,-128,42,20,0,16,-5
-18,-64,59,-67,-29,-19,-29,-6
-5,15,75,47,1,-2,-15,-3
-1,7,-13,1,7,2,-17,-5
3,7,12,21,5,1,-12,-5
-8,25,27,-16,-16,-14,-5,-7
10,49,127,25,10,13,14,11
-10,-94,-128,-6,3,-5,-1,-1
-10,-2,127,9,-6,-7,-4,-6
-4,-7,-1,-15,-17,-13,-46,-3
6,-2,-53,-20,-6,-4,28,-4
3,13,-110,-35,-5,2,-2,-11
7,27,127,9,0,12,41,12
3,-7,-40,-4,-17,-7,-15,-6
-17,-32,-128,22,-4,-18,-38,-3
-3,-1,-64,-35,1,0,27,3
-10,-36,-65,-10,-9,-7,-46,-5
-12,6,66,-4,-14,-6,89,-1
-5,-28,28,-26,-11,-13,-105,-6
17,30,-34,-53,-3,8,10,19
9,6,-94,58,16,14,127,15
-14,0,38,-10,-6,-20,-27,-12
-10,-28,-128,5,-3,-9,-68,-11
1,10,45,-2,-2,-3,-38,-4
1,-5,10,-4,-6,4,7,3
-2,-3,-13,-7,-2,2,52,0
-5,-9,-66,-5,-1,3,-12,-4
1,23,127,-6,-4,2,-10,2
10,38,26,30,9,13,8,10
-12,-113,-64,-36,3,1,-9,-4
5,43,-2,-18,-12,-5,-13,-2
-5,12,127,6,-2,-7,-10,-5
1,3,-71,-19,-5,-5,-7,4
-11,-32,-17,22,-15,-3,58,-5
-1,0,-8,28,2,-2,-6,-2
5,13,-59,-5,4,-1,-10,-4
3,-25,7,-20,4,-4,-14,-1
-11,7,61,21,0,0,8,-3
2,19,53,-20,1,3,-67,-22
22,35,-60,13,13,20,68,28
4,14,-75,-8,-2,-5,-40,12
-20,-44,91,-16,-28,-30,5,-16
-19,-30,-122,-27,-6,2,24,-3
-5,-1,-4,14,-4,-10,-43,-10
-5,8,-2,3,-4,-4,-75,-20
5,8,-2,-5,4,15,127,10
2,17,55,19,16,14,-27,-18
3,10,-62,-9,12,23,-10,11
-10,2,-84,9,-12,-11,80,-1
0,4,127,4,4,2,-13,3
-15,-41,-86,-26,-14,-20,-27,-9
-7,2,54,-10,-5,-6,109,-5
-4,11,32,-27,-20,-1,-19,-9
-4,-39,6,56,7,-2,8,-4
5,13,-26,35,25,8,-13,1
13,40,100,-8,5,5,-14,7
-5,-13,3,37,6,-3,-16,-2
-21,-23,-14,-6,-18,-16,-26,-17
-2,-22,-79,-24,-9,-4,-10,-4
9,4,40,-69,-18,1,-3,5
-3,20,-123,48,-4,2,1,-1
2,-6,-10,10,31,6,6,-1
-8,-27,-23,-30,-11,-2,-2,-2
5,26,29,4,2,-5,3,0
-7,8,0,5,3,13,12,-9
-9,10,68,-29,0,2,-21,2
14,-7,-68,3,0,6,53,8
-8,-44,-112,-10,-1,1,36,7
-13,0,101,-1,-17,-14,-19,-13
2,4,17,-9,0,0,-22,-3
-3,-25,-42,-8,-8,4,-12,12
-3,13,-31,10,-2,-3,114,-3
-1,16,87,-12,-6,9,5,-1
-4,-2,-48,-6,-4,-19,-97,-14
-6,-24,-57,16,5,-1,-23,-4
-1,-1,8,-7,-7,-6,-6,0
5,42,62,7,4,3,66,1
-3,-51,-93,-5,4,1,-20,-2
3,7,16,-5,2,5,-20,-19
11,21,35,-46,-1,15,4,12
8,51,80,50,8,5,0,9
-9,-109,-128,40,8,-1,-6,-2
-21,-18,127,-3,-7,-9,-15,-14
-5,5,69,-12,-19,-7,-14,-9
-14,21,-13,-19,-19,-12,-13,-12
7,15,51,0,6,2,1,5
9,25,1,0,5,1,2,3
6,-10,-94,-11,6,-3,-26,-6
-1,8,2,18,2,17,46,10
-10,-9,69,1,-9,-14,-32,-6
-6,-54,-123,-27,-16,-12,35,-2
-4,3,-12,-7,0,0,-3,-3
-4,4,-7,-2,1,-4,-35,-18
7,0,2,4,8,13,-1,8
10,33,17,6,-1,16,-70,0
1,9,-4,-26,-1,-3,83,7
12,41,45,42,17,3,-26,6
-8,-40,-128,5,4,-20,17,-9
-14,-69,-13,-9,-15,-2,-1,1
-5,-1,36,-12,-9,-7,-7,-7
-5,11,18,11,1,-4,-42,-6
4,8,1,12,5,2,-66,-1
10,16,9,-28,-1,9,51,0
-8,1,-17,18,-1,4,11,-6
20,73,104,-5,19,8,9,7
6,-18,-128,21,1,4,3,6
-48,-95,10,-54,-48,-36,-28,-27
1,9,68,21,11,7,-7,3
5,5,17,-4,6,-1,0,11
-2,-7,5,-7,-1,-3,-21,-8
4,-3,-22,-10,-3,4,7,2
4,11,2,-9,-17,-8,13,-1
3,-5,-3,22,10,4,5,3
5,51,87,5,18,9,6,6
20,19,30,11,13,16,2,5
-34,-84,-11,-37,-31,-24,-128,-21
-12,-7,-122,-26,-13,-12,127,-8
-1,14,57,9,-11,-21,-57,-15
-1,16,127,16,3,10,30,5
-4,6,16,-32,-9,-2,26,0
8,10,-7,14,-12,5,-29,-3
-6,-19,-64,39,23,-4,38,7
-18,-13,-85,-17,-19,-42,-127,-14
20,13,25,-6,7,16,127,33
0,19,31,-16,-8,-2,-18,-2
-2,-27,-118,-10,-11,-12,-128,-7
-5,-10,-35,-19,-3,-7,119,-10
-2,-8,-9,27,-4,-3,28,-1
8,20,-5,-8,2,0,-95,-5
-3,9,51,-5,2,2,4,-2
0,1,-79,22,3,1,76,2
6,43,-24,36,11,11,-6,5
-7,-51,-128,-22,2,-3,-86,-3
-12,-37,74,7,0,-4,32,-2
-4,-15,39,-55,-26,-11,88,-4
-5,-12,66,17,-28,-14,-43,-6
7,15,-37,0,20,6,-7,1
3,18,-3,10,17,6,-21,1
1,1,1,5,9,-6,-51,-2
3,9,31,-14,-2,3,77,12
10,34,-128,2,2,3,8,2
-21,-103,-128,-13,-14,-13,-32,-11
-11,-7,99,-24,-22,-2,10,-16
2,-4,-32,8,10,-10,-128,5
12,25,41,-13,7,-3,107,-1
11,19,-36,28,10,9,-107,12
-6,6,17,-3,-11,-4,39,-4
-6,-18,11,-7,-4,-7,56,-4
7,19,66,-3,-9,-7,-80,4
-11,-18,-20,2,-9,-10,85,-5
2,-2,-3,0,10,2,-12,5
2,-17,-31,-7,7,6,-17,1
0,52,127,6,1,1,14,9
32,127,127,25,10,16,92,17
-19,-128,-128,-45,-12,-7,-27,-9
-15,-24,46,-7,-11,-8,-15,-9
1,31,68,-12,-4,-7,-51,-8
-1,28,92,16,-4,-1,-85,5
-8,-13,-87,0,7,1,82,-12
3,29,127,51,24,4,-1,3
6,-4,-40,9,5,-2,-1,0
-14,-1,-18,13,-4,-2,-13,-5
2,2,-13,-5,-5,-5,-2,-2
2,-2,-7,-16,-5,0,-8,-9
2,12,4,-10,-3,0,-26,1
-23,-48,-128,-32,-24,-11,71,-7
8,1,31,1,1,4,-18,0
2,-4,-4,-4,-3,5,-19,9
-6,-14,-32,-20,-6,-6,-6,-7
8,0,-97,-37,0,12,38,19
-1,5,100,19,-4,-1,0,-2
-6,-23,-128,10,4,-1,-15,-5
-7,-4,0,-8,-1,-6,-17,-12
1,12,16,3,-4,4,-4,-3
0,-6,-12,-11,-4,-7,-128,-13
-4,47,16,0,6,-32,5,-19
28,2,-121,-6,19,39,92,35
-27,-26,127,1,-37,-30,-89,-20
-13,-19,21,-9,-14,-14,-128,-17
7,15,-13,17,10,10,127,12
1,9,-34,-14,0,-1,10,-1
15,24,28,8,15,16,-35,11
2,42,108,-22,-7,1,127,13
-2,-33,-46,-1,-7,-8,-14,-3
-17,-48,-108,7,3,-9,-27,-13
-2,-12,-110,-8,1,2,-13,-8
8,41,98,9,-2,1,-4,-1
8,34,0,7,3,-1,-27,0
-11,-46,0,-10,-9,-2,-12,-7
5,15,86,-4,-5,2,6,5
3,8,-128,-59,-3,5,-35,-4
-5,24,92,83,14,-5,95,-2
-13,-39,-128,-16,-6,-12,-13,-13
4,-12,2,9,0,4,-33,7
9,-1,-110,-32,-6,5,58,10
-3,5,7,-6,-7,-5,-52,-9
-7,19,120,-15,-11,-10,50,-8
10,59,80,13,3,-2,-65,2
8,-50,-128,4,17,11,77,4
-8,-23,-95,-2,-5,-1,-8,-4
-8,7,-30,-41,-16,-24,-39,-8
12,27,127,26,9,4,6,2
-22,-40,29,-14,-6,-3,-81,-9
-9,-3,-56,-4,-9,6,127,10
-2,-10,-6,-13,-12,-5,127,5
-4,-23,-11,-9,4,-1,-87,-13
7,21,72,8,7,19,81,10
6,1,56,-6,2,1,-27,14
-15,0,13,-9,-22,-11,55,-8
6,33,32,5,4,0,-51,4
-10,-26,-77,-28,-14,-5,-2,-12
-10,-58,-59,-20,-10,-5,0,-10
0,-27,55,38,17,8,-15,-1
4,15,19,13,9,0,-36,-1
9,59,126,12,8,6,12,9
-14,-89,-128,-68,-26,-7,-35,-11
0,24,127,57,-13,0,44,-2
-1,-5,-36,23,42,8,3,2
-6,-5,-36,-23,-7,-8,-14,-9
6,-6,-81,-15,-3,1,-8,1
-11,-15,75,-8,-5,3,11,0
-5,-36,-85,-33,-10,-1,11,-3
-5,4,31,24,-12,-9,-7,-7
-1,29,91,15,-1,-12,-49,-8
-10,-75,-128,-27,-8,-5,-11,-6
-1,-1,34,-5,10,6,-22,1
18,38,-27,-10,1,16,47,16
3,-1,-59,14,-1,-12,-2,3
-2,22,18,3,-1,0,-43,-7
-5,5,22,-8,-13,-21,-53,-18
11,-40,-128,-1,16,21,46,24
-10,-19,84,1,-9,5,127,9
-8,10,67,-2,0,-2,-31,-23
-4,2,-25,-11,-1,0,29,15
4,1,-42,-9,2,16,127,20
-8,-20,14,4,-8,-7,-66,-12
5,24,43,25,8,4,-128,-6
-8,-51,-112,-19,5,6,91,-9
3,35,-41,-8,0,-20,-38,-2
5,16,68,-4,0,0,-25,0
-7,-14,-6,-47,-26,-12,-40,-8
-3,-35,18,37,4,-1,15,-2
-14,-77,-128,-51,13,0,-4,-8
-1,16,14,0,-8,-8,-3,2
15,31,21,-48,-5,8,11,14
-6,27,121,47,-4,-4,2,-6
-12,-40,-128,22,1,-4,-3,-5
-2,-22,-14,9,5,-2,3,-1
0,4,55,-10,-1,-3,-3,-5
-3,-2,-2,-8,-5,0,-5,-3
4,4,15,-8,-1,2,-24,1
0,47,51,-33,-16,-1,-40,-13
10,21,25,21,4,3,97,17
-46,-118,71,-40,-25,-25,-7,-16
1,25,56,0,-11,-24,-121,-22
21,31,-23,2,21,20,-128,13
-9,-3,-67,-11,-20,0,127,16
4,10,-18,9,-2,-7,-101,7
9,37,51,-2,7,2,-128,4
-1,-11,43,15,-1,-8,-37,-10
-6,-9,-128,-14,-3,-2,-4,-9
-10,5,53,-9,-14,-20,-98,-24
2,-47,-9,-10,7,12,-27,4
6,1,15,8,12,10,101,-5
5,22,121,4,2,4,-76,3
0,15,32,-23,-7,1,127,-8
-2,9,-84,76,13,-3,-13,4
-7,-23,-3,-30,-19,-12,-13,-2
1,5,-128,-19,-8,1,-3,-3
-1,7,127,16,35,0,-5,-4
-9,-40,41,20,-5,-6,-8,-7
2,2,-66,-8,6,0,-2,1
-5,-18,-100,-20,-8,0,1,-1
2,26,-17,-5,-9,-1,0,-5
8,23,-62,-6,-2,2,0,-1
-1,-35,-33,-7,-4,0,-15,-6
-17,-19,86,-16,-8,-2,-35,-10
-14,-5,-76,-25,-23,-18,47,-9
7,7,28,7,6,9,48,15
6,13,48,7,-1,-11,-2,7
3,1,21,3,8,3,-12,-5
-7,5,-2,18,1,2,-17,-24
18,20,-12,14,24,24,23,29
-9,-6,31,-13,-15,-6,127,10
14,13,-22,-3,2,3,-89,9
-26,-88,-61,-12,-21,-15,74,-14
1,25,39,-11,-6,1,-32,-3
-4,8,5,20,-1,-7,41,-14
-9,-75,-107,2,-10,-5,-9,-9
0,7,8,-51,5,-5,-41,-4
16,37,120,27,7,8,-11,11
-4,-10,-128,7,-5,-7,-22,-6
-12,-27,33,42,19,-8,-28,-6
-3,6,28,-1,-1,-3,-3,0
3,9,49,2,-2,3,1,1
-1,1,5,-8,-6,-1,0,2
2,0,-15,-10,1,4,0,2
1,-4,-125,0,4,2,3,0
6,3,41,-3,2,6,4,4
-3,8,0,-10,-11,-4,-4,-3
-6,-1,33,-28,-22,-6,-6,-4
0,4,16,32,9,1,1,-2
2,11,14,4,9,3,1,-3
-3,0,-28,-1,-5,-12,-33,-16
17,1,-102,24,8,7,-17,15
-25,-55,120,-21,-17,-10,-9,-24
7,17,51,1,0,12,-52,3
9,10,48,0,-6,-4,-78,3
-2,5,-73,-15,12,5,59,7
-9,-38,9,20,-4,-5,-20,-9
-14,18,-52,5,1,-5,-112,-7
-3,2,60,-10,-11,-6,49,-13
-8,-15,10,-7,-9,-11,-42,-3
12,24,14,3,4,9,31,8
6,16,23,9,16,4,-27,2
18,82,83,16,18,10,-14,7
-16,-75,-123,-22,-18,-8,-6,-12
-22,-53,127,-12,-15,-18,-25,-17
-3,6,56,-16,-5,-2,-7,-2
5,22,35,1,-7,-3,-6,1
2,12,22,44,21,5,0,2
5,9,-21,-3,1,0,0,2
8,9,-40,-3,11,7,22,7
-4,4,36,-11,-11,-4,4,-2
2,18,28,-8,-9,-3,-2,-3
-5,-4,28,55,10,-3,-6,-3
-3,3,-1,-9,-4,-9,-18,-6
1,-1,-14,-19,-7,2,21,9
-4,21,13,-21,-5,1,-14,-1
8,15,50,37,17,4,-33,-6
-14,-33,-35,-15,-13,-8,92,-5
-6,-34,-52,-12,-4,2,16,7
7,36,20,-6,-7,-1,-1,4
-3,0,-23,-3,-3,-4,-106,-7
-3,-2,4,-11,-12,-14,90,-15
5,15,19,19,4,-2,-103,0
-10,-13,-128,-13,-4,-8,-29,-14
-6,-39,-128,-21,-3,4,63,9
-1,3,-15,-5,0,6,-4,-1
-4,17,87,20,-2,-9,-35,-4
-4,-5,19,-2,-4,0,66,6
8,-9,-104,5,5,5,-6,7
-10,-21,62,-22,-14,-8,-23,-8
0,11,-110,-2,-6,-1,-19,-2
7,22,43,9,17,6,-13,-1
6,12,-43,12,13,7,-11,3
-7,-1,47,1,-11,-5,-7,-4
-18,-34,-33,-50,-21,-13,-19,-14
-5,-29,64,27,-2,-8,-27,-12
9,11,-22,24,11,6,5,18
-6,-1,-45,-7,-6,-9,15,0
-4,15,23,-8,-13,-12,-10,-8
0,4,19,-2,-5,-1,-1,-2
1,7,-12,-17,-8,-2,-4,-5
-2,-9,-40,-13,4,-6,-45,-10
22,73,82,32,17,15,-35,24
-4,-40,-128,-10,4,-2,89,-7
-24,-45,76,-20,-32,-22,3,-20
7,16,53,-3,-1,14,-15,6
-6,-4,-45,1,-3,-5,63,1
3,10,-73,-5,0,-4,-59,-1
1,5,-2,-3,-5,-3,53,-2
-1,3,-3,6,6,-1,-26,-13
0,9,14,-4,-2,-5,-73,-12
16,26,42,-6,10,14,64,24
-7,-37,-48,-16,-18,-8,-28,-9
-9,0,-65,0,-12,-17,-100,-5
-13,-65,-36,16,14,1,106,-1
-1,-16,-30,-32,4,3,16,0
0,14,17,-9,-4,-5,-26,-3
1,20,50,8,4,-5,-35,-8
7,20,41,9,-2,11,27,13
5,20,-42,-35,-5,-3,-4,3
7,27,-11,79,24,4,-7,1
-13,-30,-8,-12,-12,-11,-19,-9
-13,-25,-128,-57,-19,-8,-31,-11
-8,0,100,-9,-18,-14,37,-4
-5,-11,-5,12,1,1,-4,-2
1,-1,-6,5,3,0,-28,1
0,-2,-1,-1,-2,1,24,-1
2,3,-8,-4,1,-5,-12,-1
1,3,-9,-18,-6,-4,-14,-7
4,7,-2,36,5,8,-12,3
8,16,127,-20,-5,-16,40,5
0,-13,-128,19,1,4,12,4
-15,-70,-28,0,-9,-10,-18,-14
-5,-6,68,-11,-15,-12,-28,-6
-1,0,3,3,3,-1,-1,-3
2,5,4,2,0,-1,-5,-1
1,6,11,2,2,0,-1,-1
0,4,-13,0,1,-1,-42,-6
-1,-6,-29,0,1,3,-76,-13
12,40,-11,0,7,14,108,17
6,70,127,42,0,-9,-6,2
-36,-128,-128,-49,-12,-7,48,-13
-19,-2,127,-43,-29,-16,57,-18
0,24,77,20,5,-3,-44,1
8,25,19,2,10,6,-48,3
2,6,-9,7,5,-4,2,3
5,8,-11,-6,11,11,23,10
-1,-2,-16,-7,0,1,8,1
-2,-5,-23,17,-1,-1,-29,-3
-6,-10,-28,-13,-1,-5,-7,-10
2,8,-19,16,0,3,9,6
5,10,-2,-21,-11,5,2,6
-10,2,-8,8,-9,-15,-128,-5
20,35,99,46,40,18,127,22
-22,-123,-88,-71,-16,-15,-38,-2
-17,-2,60,-5,-26,-13,44,-1
-23,-43,115,-12,-32,-23,-43,-17
-7,7,61,-1,-14,-8,29,-3
2,4,-3,3,1,2,-17,-2
5,4,-28,2,16,6,-8,3
4,4,-28,-1,5,4,-5,4
3,4,-25,-7,-1,1,-1,1
-1,-7,-21,-15,-10,1,1,-1
-9,-13,-19,40,19,-2,-9,-1
1,-4,-35,-1,7,1,5,0
0,3,-19,-10,-5,-3,-37,-3
-7,-2,-14,-8,-5,-4,46,-1
3,-3,-10,-1,-2,-2,-19,6
2,17,13,0,-2,2,34,5
-4,3,38,-12,-6,-9,10,-4
2,5,11,28,4,0,17,0
-8,-65,-100,-43,-2,-3,-7,-9
-6,9,127,32,3,-2,-6,-1
10,45,-22,13,5,8,2,7
-24,-78,8,-20,-23,-18,-57,-16
-15,11,66,-3,-14,-2,127,0
1,11,27,0,1,5,6,5
2,15,6,-12,3,-8,-45,5
10,11,-7,4,1,10,89,21
-2,-14,-22,-4,-3,-6,-17,-5
13,40,28,4,-5,-5,-62,4
2,37,28,23,8,1,49,-6
3,-42,-77,-22,6,3,-38,3
-13,-39,-5,-12,-17,-4,-15,-10
-1,25,11,-10,-8,-5,-48,-15
-3,-8,17,33,22,9,-2,-2
0,5,-12,26,9,1,43,5
-2,-2,2,-13,-14,-14,-8,-2
-2,1,5,-30,-10,-8,-34,-4
0,3,14,6,-9,-2,54,-1
-1,5,-7,20,11,1,-7,-2
11,54,45,4,26,15,-2,7
-6,-26,-89,-1,0,4,10,-5
-25,-59,8,-30,-28,-17,-19,-20
-14,12,94,-3,-11,-11,1,5
12,30,-11,7,16,14,15,19
-13,-10,-11,-5,-15,-10,-25,-26
10,13,22,-12,3,14,40,19
-7,-18,12,12,1,-4,3,2
10,12,29,-2,-3,3,-2,5
8,10,-30,7,1,0,-4,-4
-14,-21,-25,-4,-1,-1,-7,-6
6,15,-2,-5,8,5,-51,-11
0,-4,-16,-4,0,5,-25,18
-4,-12,-128,-12,-4,-3,86,3
-3,10,-31,-6,-14,-12,-21,-4
-1,4,126,14,2,-1,-28,-5
1,9,-101,2,5,9,24,1
-9,-35,0,-32,-8,-3,-17,-2
-7,-34,20,28,-8,-4,-15,-6
-4,-8,13,2,-7,-8,-16,-6
5,12,-7,3,0,4,-1,3
3,12,48,-8,0,2,-33,4
-2,3,-8,1,-9,-1,71,-5
4,3,-76,-10,5,3,0,3
-3,23,127,28,16,-2,-21,-4
-13,-39,-128,-4,-5,-7,-37,-17
-8,1,50,-9,-13,-2,66,6
2,-1,-29,-23,-8,0,-3,3
7,1,-18,15,-5,-3,-6,2
-4,9,67,3,12,2,-4,-1
-2,-9,-7,-32,5,5,-7,-4
-1,-2,-27,28,3,-1,-36,-7
-7,-4,-38,-8,-8,-6,43,2
-2,-29,-128,-9,1,-1,21,9
-2,14,127,-15,-9,1,2,3
-16,-9,58,-4,-21,-18,-17,-15
-1,-3,-24,17,5,-3,-5,-1
1,2,-27,-7,-1,2,-2,0
3,-6,-34,-2,0,2,-14,-5
1,-28,-46,-11,2,4,-32,-9
8,40,48,7,10,6,-5,12
3,31,-41,5,-11,0,56,4
-6,-60,-90,-20,-8,-3,-2,0
-3,-6,40,-13,-1,3,4,-6
12,30,85,-3,6,-5,-44,-7
-11,-21,-128,-17,-6,-7,-28,-6
-5,-17,10,20,6,2,12,2
0,11,26,9,6,-3,-6,-2
3,4,16,-14,3,2,-6,0
6,4,-128,-22,8,11,1,3
-15,59,127,52,-6,-11,-5,-15
-9,-52,-92,-15,-4,0,11,-2
0,-10,-57,-11,1,8,27,4
7,-2,-27,4,5,10,0,3
7,18,28,-20,0,2,1,1
-6,24,71,22,-6,-9,-3,-2
3,-1,17,-6,3,7,-2,0
-7,-21,-19,2,-14,-19,-32,-10
-6,-9,-27,-4,-4,-15,-3,1
9,10,83,-1,10,2,-94,11
18,52,-61,-14,3,6,60,18
-12,-40,-31,-13,-11,-2,117,1
-3,-25,-42,-4,-9,-5,-26,-1
-2,3,57,-3,-14,-13,-42,-9
-4,46,101,15,6,-8,-25,-10
-4,-56,-128,-16,-6,0,1,0
9,1,4,8,3,4,6,8
-11,-1,46,-7,-12,-9,-10,-2
6,13,43,30,8,7,11,6
-3,2,-2,3,-8,-13,-39,-13
17,19,35,2,5,2,-13,17
-7,-24,-78,-25,-10,-3,88,-4
-9,-5,-128,-8,-10,-5,-7,-7
-1,1,43,-7,-1,-1,-9,-4
-3,-26,12,22,-4,-3,-8,-3
10,15,-91,-22,0,6,0,1
-8,32,127,73,12,-4,-33,-8
-8,-26,-119,-22,1,-1,7,0
5,-2,-93,-1,-3,7,17,5
-8,-34,55,2,-1,-5,-4,-4
0,-5,22,1,-1,2,-3,3
-2,23,17,-15,-5,-3,-6,-2
1,20,38,-7,-3,-1,-16,-1
11,14,-65,3,1,6,6,-1
-9,-31,-53,-1,-1,-5,-28,-10
-5,-11,41,9,5,2,9,5
-2,-23,16,-15,-3,3,39,3
-4,18,65,-1,-4,-2,-21,0
-9,-9,-24,-3,-8,-11,-21,-13
7,52,-28,2,1,5,31,6
-2,-15,-15,-39,-4,-10,7,-1
-2,-18,113,-16,-9,8,40,3
-4,-16,-107,23,9,-8,-14,-4
-5,6,-10,2,-7,-8,-121,-6
-2,0,-12,-2,8,4,35,-9
-3,-10,53,20,3,7,31,-5
-4,26,54,-2,3,3,-27,-3
6,9,21,-17,-1,11,2,16
-4,-46,-87,-25,-16,-7,28,-4
-9,0,5,5,-3,-3,-9,-5
-6,-2,9,3,3,-12,-31,-12
-4,2,-18,-6,-2,-3,-14,-3
-3,-5,32,2,4,-1,-11,-2
6,23,21,5,4,5,-12,0
11,20,-57,-32,5,12,20,10
-22,-49,-49,0,-22,-21,-40,-12
2,10,93,-5,-13,1,61,5
-13,-11,-26,13,-6,-6,4,-11
-2,-7,-24,4,8,-2,-17,1
12,48,20,-14,-2,-6,-19,1
8,7,17,7,6,5,8,6
-1,-8,-33,-6,0,4,-5,-10
6,14,7,2,1,7,-13,12
14,25,-1,-2,11,7,43,6
-7,-25,43,-13,-15,-9,46,11
-8,2,74,4,-16,-13,-14,-7
-1,1,47,5,-3,7,65,4
-9,-24,1,-9,-1,1,-20,-14
6,15,-5,22,27,9,-41,2
-2,10,7,11,-2,0,-22,-2
4,32,56,-18,-8,-11,-128,-11
13,7,-44,9,8,15,127,12
-17,-27,1,-9,-8,-13,-31,-8
-10,-55,-102,-10,-11,-7,-40,-8
-4,12,12,2,-7,-9,-33,-9
-4,8,26,-8,-6,-5,-50,-5
12,16,50,9,3,3,-24,0
-7,-37,-1,-20,-6,-14,-68,-8
6,34,24,13,16,6,10,8
-7,-11,-73,-7,1,2,64,-7
-16,-10,127,-17,-30,-20,-11,-13
-7,-19,-26,-15,-18,-8,-6,-8
6,6,-21,9,9,2,-4,4
-2,-7,-40,-7,3,-4,7,-8
4,13,-5,-23,-1,-1,-1,4
-3,12,-11,8,0,-2,-9,1
2,22,88,27,11,2,3,1
-8,-61,-128,-50,-16,-1,-1,-3
-10,-36,-19,66,11,-5,-4,-10
-10,-39,-51,-3,-5,-7,-30,-18
7,15,92,29,7,6,-35,-4
3,-1,14,-19,-1,4,-26,8
0,17,-71,-12,-3,1,116,7
-1,8,-29,-4,-2,1,55,1
-13,-12,21,-13,-10,-13,-55,-11
0,4,1,12,5,-7,-43,-11
9,16,-29,-14,-4,6,92,19
-2,4,-50,24,0,-3,-15,-10
-8,-55,14,12,2,5,-26,-3
7,25,-124,-8,3,11,59,7
1,4,72,-3,3,-4,-39,-1
-4,-1,-35,-12,-5,0,-14,-5
-4,15,125,18,-5,-8,-116,-7
-8,10,12,-2,-8,2,127,-10
0,-16,-14,-3,6,4,-7,6
5,2,-13,-8,-1,1,-14,1
6,-8,-35,3,6,4,-23,-4
15,63,50,18,11,8,4,8
-3,0,-13,-6,3,-2,-7,-3
-28,-77,-3,-42,-31,-31,-57,-41
10,3,51,38,27,22,31,21
-7,23,65,39,0,-12,-8,-8
9,14,-24,-19,6,9,20,2
0,13,116,34,-2,3,6,-3
7,15,10,-47,-15,-8,-51,-8
6,-2,-13,102,32,18,-2,14
-1,-3,30,-33,-5,2,51,9
2,-6,-128,-10,1,-4,-25,-5
-7,-38,-128,-19,-7,-14,-56,-10
-8,19,127,-2,-14,-5,-4,-5
-7,3,5,-14,-12,-8,37,-3
2,27,-2,2,7,6,-68,-23
16,-16,-23,16,20,35,127,38
5,-9,-77,-13,0,2,-16,9
4,-16,10,-9,6,5,-6,6
-15,-19,113,24,-12,-11,-23,-11
-5,-19,-128,-18,-5,-2,-11,-7
0,56,127,8,-5,-9,-33,-7
3,3,-33,7,1,5,6,3
3,-14,-1,-11,0,4,6,2
-3,-8,25,-9,-2,-2,1,-4
9,36,0,-12,3,3,3,0
-5,-41,-79,35,15,0,-62,-15
-6,-43,-14,6,-1,8,55,14
-11,28,119,-4,-22,-14,20,-10
4,-9,-43,8,4,-5,-2,4
-9,25,127,11,-6,-10,-16,-8
2,19,27,-14,-6,-1,-11,3
1,-24,-128,-37,-9,-5,-35,-11
23,3,-63,43,26,15,12,21
-24,14,127,21,-14,-9,-5,-20
-7,-2,-21,-10,-1,1,32,5
-1,-3,-61,0,-5,-6,1,4
-3,20,-75,-6,2,1,-13,-1
7,4,-10,-6,6,8,-19,-4
-17,-89,-109,-31,-15,8,76,5
-2,6,31,2,-10,-11,77,-4
5,23,73,9,-2,0,-7,4
-2,2,1,-10,-4,-11,-40,-7
7,46,23,4,-6,-3,36,1
5,-3,-47,-1,9,9,-24,7
2,21,126,1,0,2,-8,0
1,-5,-73,1,1,1,17,1
-13,-27,6,-11,-12,-10,-21,-14
-2,21,37,4,-2,-2,0,-3
1,-19,-81,-23,-5,-9,-22,1
12,51,127,16,6,3,2,9
-15,-71,-50,-7,-17,-10,-6,-10
-7,-6,-128,-9,0,-2,-7,-6
12,19,-26,0,12,12,-3,7
-5,19,127,5,-4,1,23,-5
-10,-23,-86,13,-15,-7,38,4
-13,-25,-46,-33,-17,-11,-17,-13
8,22,4,49,9,2,9,6
-2,0,29,-43,3,2,-7,3
10,13,-26,-7,21,11,12,10
-5,-72,-30,-18,-12,-7,-7,-4
-24,10,112,1,-14,-10,-13,-14
4,25,-128,-2,-6,-6,-27,-2
-13,-19,-33,-17,2,3,-9,-1
-3,-9,-20,-8,-5,-2,17,1
4,11,14,-24,-12,-5,-38,5
8,27,60,45,20,13,30,9
11,14,-36,9,11,4,-12,8
-4,-65,-108,-8,-2,4,44,3
-18,6,127,-13,-23,-18,-20,-12
1,11,36,-1,0,3,0,-1
8,12,13,11,6,5,-4,6
7,23,67,7,9,0,-5,0
-10,-27,-96,-2,-2,0,8,-5
-5,-23,-40,-13,-7,-7,-24,-2
-1,-7,5,-8,-3,0,-13,1
-1,16,25,-8,-7,4,101,1
5,11,-16,-7,1,-1,-7,2
-8,0,9,19,-1,-1,24,5
-7,-16,-68,4,-1,-5,-12,-5
-14,-2,43,-7,-20,-16,-74,-20
6,5,-44,3,14,14,127,21
1,-8,-40,-27,6,-2,-37,4
-4,12,44,1,-2,-6,-9,2
3,-11,-58,-20,2,5,30,2
-1,-10,49,-4,-6,-1,-10,-6
4,48,94,14,14,6,-4,-1
-10,-25,-73,-9,-19,-10,-82,-9
-10,-19,7,-10,-1,-11,60,-8
-5,-50,-51,-11,-2,-1,-11,-3
8,26,-69,-14,-3,1,-12,1
-10,-20,86,-6,-17,-6,-12,-5
-4,-1,100,45,6,-1,-7,-1
-2,18,8,15,2,0,-7,-1
1,13,-7,-2,5,1,-3,-2
3,6,-90,-26,-8,4,-2,-1
4,10,16,-7,-5,6,2,0
4,16,-26,9,22,4,2,2
-14,-59,-48,-16,-17,-13,-54,-9
-5,-15,39,-9,-6,-2,43,-7
-2,-48,-47,-15,-6,3,22,2
4,9,-18,1,6,4,-2,4
-3,11,1,-7,-6,-15,-37,-14
3,-2,-45,-14,-5,4,3,14
5,13,54,-1,-8,5,26,6
-8,-1,41,4,-11,-7,2,-3
-9,-14,-43,-10,-2,-13,-59,-20
15,11,9,11,15,23,-56,21
-2,-8,-19,-3,-4,-10,104,-9
-5,11,86,6,-4,-4,16,-4
-8,-20,-128,3,1,3,-24,-8
15,49,-33,-10,6,6,1,11
4,13,33,29,4,1,-66,0
-20,-58,-26,-33,-21,-27,4,-21
-2,-15,-36,-8,-4,-4,-5,1
5,42,127,-8,-6,-2,-12,4
0,-14,-128,-5,2,3,7,-2
-2,-31,-22,34,8,-1,-4,0
-1,6,58,-36,-23,-5,-6,-2
3,-13,-15,19,40,9,2,6
11,28,-128,22,22,10,6,5
-19,18,127,11,-21,-17,-15,-15
3,16,77,-15,-8,-2,-5,1
-4,-47,-128,-44,-10,-4,-4,-1
1,2,30,-27,-14,-4,-4,-1
1,3,99,27,10,-1,3,-4
-3,15,68,11,2,0,-31,-3
1,0,-10,-2,0,-3,22,5
5,-8,-56,-17,9,-5,-56,-4
5,22,56,15,-5,5,-64,9
-26,-11,-34,-9,-22,-33,69,-40
4,-20,-49,-9,-2,6,32,23
1,-34,-54,-3,5,1,3,9
17,44,5,1,0,4,-52,4
-10,-5,4,2,-3,-11,-14,-8
-5,2,0,1,-1,-3,-44,-10
-5,-12,-62,-6,4,8,99,-1
10,14,36,14,10,1,47,4
1,43,52,-23,-12,-9,32,-5
-5,-45,-27,12,-4,-6,-24,-6
-13,-36,-39,1,-11,-1,-23,-8
7,21,54,15,4,3,-42,-1
-2,9,23,-4,2,2,110,2
-3,-3,-68,-27,-1,-1,-14,-4
-4,-13,-20,7,1,-9,-12,-4
1,4,3,-6,14,5,-6,4
5,1,51,-20,6,2,-5,5
-1,-10,-18,-15,-9,-2,-3,0
-12,19,18,18,-20,-17,-21,-13
-10,-18,-17,-5,0,-6,-1,-6
2,7,36,-20,-3,-1,0,1
3,10,-39,-3,-2,0,-9,-2
5,0,47,5,5,6,-15,-12
3,3,-17,41,10,7,17,17
0,-5,-14,-1,2,1,-18,0
4,-2,-84,-13,2,-1,-39,-5
-3,17,106,0,-8,5,46,0
3,21,42,12,1,3,-62,-2
5,-19,35,-3,6,0,72,10
1,-40,-128,-24,-2,-5,32,-3
-11,3,97,-13,-16,-9,-80,-12
-3,12,100,7,0,6,26,2
-3,-8,-17,-12,1,0,-17,-4
-11,8,26,17,-1,-9,-10,-6
-1,-4,-5,4,-5,-4,16,8
4,9,-73,-1,-2,-5,-41,6
3,-7,-75,-11,4,9,46,0
-2,0,30,-26,-7,-2,-11,-4
-5,8,31,21,6,1,-10,-5
-2,-5,40,0,6,-6,-72,-2
-2,11,-50,-30,-13,-5,57,2
4,15,-23,18,-4,0,20,0
3,-1,-21,-32,0,0,-6,0
-13,-63,-21,125,26,0,-9,-3
2,2,-103,-13,1,0,-14,-7
-11,13,46,-9,-8,-3,0,-1
6,7,-88,-12,1,5,3,6
1,-23,79,-28,-16,-1,0,1
-6,-7,-30,38,4,-7,-7,-7
-1,2,3,-11,-4,-7,-4,-4
2,18,-12,-16,5,3,3,4
-10,5,16,-9,-3,-13,-78,-36
20,4,-16,15,14,18,-3,27
-11,-17,-59,-14,-8,0,90,2
3,-22,-46,-8,-4,2,25,2
0,23,43,15,3,-3,-16,-3
-3,6,65,6,0,-2,-31,-9
-6,-10,-5,-15,-9,-11,-59,-11
0,0,-49,-16,-3,-3,48,2
-6,-6,-16,6,-6,-11,-37,-12
6,-7,-3,-4,14,18,108,19
-6,1,-35,-17,1,-3,-58,3
-5,1,0,23,-3,-3,27,0
-6,-28,18,9,0,-1,-9,-5
-3,-3,-14,-12,-14,-10,-20,-10
0,1,-35,-3,-4,-1,-17,-4
9,25,15,-35,1,6,-6,1
-6,12,8,20,-5,-7,-7,-6
-8,-3,-13,13,2,-2,-4,-5
17,26,113,1,10,12,17,13
-20,-36,-128,-14,-9,-14,-13,-13
-17,-37,26,-19,-11,-5,1,-12
-1,4,36,9,-1,0,-1,1
8,9,-13,0,8,3,-1,2
-3,12,2,25,9,3,3,-1
9,14,6,-1,1,6,10,9
-1,-3,-14,-8,-5,-1,-16,1
5,1,7,1,7,7,-5,0
1,-7,-57,0,-8,-2,-45,1
0,9,-35,-2,-4,-6,127,9
-3,-18,74,-21,-16,-10,12,-3
-10,3,127,-3,-7,-8,-26,-6
-9,5,84,-14,-11,-10,-30,-11
-1,-33,-128,5,2,-2,-78,-3
2,-11,-52,-2,5,6,32,-1
2,7,-16,1,2,7,-4,1
-1,9,-4,3,6,-6,-120,-25
1,-10,-9,-7,4,12,30,17
0,10,88,-1,-3,2,120,16
7,8,-118,-6,9,8,5,2
-8,19,76,9,-22,-14,-28,-14
-23,-77,-83,-20,-26,-23,-52,-20
-1,29,100,7,2,-1,-16,0
-1,-13,-85,-10,5,5,-11,-1
5,4,-26,33,11,5,-2,1
1,-4,-20,1,17,5,-2,2
2,3,7,-2,1,0,1,-2
-1,12,22,-37,-21,-7,0,0
12,19,-40,21,27,15,11,10
1,4,85,12,18,1,-27,-1
-30,-128,-105,-17,-15,-13,-2,-21
-14,-7,-62,-23,-20,-13,-17,-9
-7,13,60,-11,-9,-1,1,-4
0,9,-4,-3,-1,3,5,2
8,6,-11,-2,3,6,-6,2
4,3,-9,-1,0,-1,10,1
4,5,-7,2,10,8,-64,5
-2,1,-5,1,1,1,21,-20
-1,22,23,6,2,3,6,0
12,2,18,19,14,17,31,11
-5,-16,-81,-6,-2,8,127,4
-2,-20,-90,-20,-6,4,-41,14
-3,26,-3,-11,-5,-8,-14,-4
-21,-59,40,13,-20,-21,-8,-22
3,15,49,19,4,5,-19,4
0,12,-8,2,7,4,63,2
-2,8,25,-6,-4,0,-11,2
2,0,3,-11,1,3,-21,2
3,9,-23,11,-6,0,-14,-2
7,17,83,-32,-20,0,-11,-5
-1,-20,-21,89,31,8,-8,1
-9,-31,-33,-37,-6,-7,-3,-5
-12,-6,107,-17,-2,-5,2,-5
3,-10,-123,-34,-3,0,2,2
1,20,-95,21,-7,-6,-9,1
-22,-34,127,-9,-18,-14,-15,-12
-10,-39,71,-38,-19,-14,-5,-6
13,27,29,23,7,1,4,7
17,16,-1,-28,-2,7,3,7
-7,0,-126,30,21,5,-1,-4
-9,-9,-12,9,-7,-7,-14,-10
-3,-6,-34,-22,-3,0,-60,-4
10,42,45,-5,2,8,81,5
-8,-27,-41,-10,-8,-9,18,3
3,-12,-13,-15,-7,-10,-27,-1
-9,-8,22,-21,-20,-11,-71,3
5,25,67,16,3,2,17,5
-7,-27,2,10,0,1,82,0
-1,-21,-13,-2,-1,-1,-85,-10
-10,4,14,-10,-7,-8,-13,-14
6,10,-22,-7,-1,8,68,7
-8,-10,-6,6,2,-2,-13,-4
10,22,12,-18,1,2,-23,2
8,25,25,-14,14,8,-10,4
-17,-33,98,17,-14,-14,-13,-11
-8,-21,-80,-9,-9,-8,-28,-8
0,-2,82,-1,-4,-4,-5,-7
-10,43,127,-6,-11,-7,-17,-9
6,12,81,-7,-2,9,39,11
5,-11,-122,16,17,0,-9,2
-12,-11,-7,-11,-9,-5,-5,-10
6,7,-11,-23,-13,-3,-4,0
4,24,63,5,4,3,4,4
0,-21,34,28,7,-1,0,1
-8,-31,-128,-26,-10,-6,-5,-10
2,11,39,12,5,-1,-21,-11
5,-21,87,-19,1,12,25,10
-11,-15,39,-19,-18,-7,-2,0
-1,14,-13,-1,-4,-4,-28,-6
-1,6,-22,9,-4,-8,-19,4
3,-2,-80,-1,4,5,110,-7
8,15,65,0,13,14,-47,-4
-13,-29,-23,-4,-12,-9,73,5
0,18,117,16,3,-9,-12,3
-10,-39,-128,-6,0,-1,-9,-3
3,8,41,-2,2,2,-68,1
-1,7,12,-3,-1,1,67,-3
-6,-27,-128,-21,-3,0,-11,-1
-11,0,29,-2,-7,-5,-18,-6
7,53,127,11,3,-1,-58,4
-11,-2,41,25,-8,-8,85,-5
-9,-43,14,-14,-9,-5,-15,-2
-2,-2,-34,-20,-1,2,48,3
2,6,-39,-2,-2,1,-13,0
1,-4,-44,18,10,3,-108,-3
1,9,61,-5,0,-3,127,-9
-2,25,25,-8,-5,0,-18,-5
0,-14,-2,-20,-2,5,-19,4
7,9,-4,12,-6,-9,-15,-2
-5,4,66,84,24,2,-2,-5
0,22,127,1,-6,-6,-2,0
-6,-1,84,-26,-28,-11,-12,-5
1,2,-21,10,12,2,4,3
9,29,59,13,5,5,3,5
7,-42,-66,27,26,14,9,9
-17,-42,-21,-40,-22,-20,-43,-9
5,16,36,25,4,2,-19,2
0,29,49,8,-2,-4,-59,-5
6,16,56,-1,-1,3,17,6
4,7,-83,-1,-1,7,81,8
-3,19,24,1,0,-12,-25,0
-13,-30,-17,-13,-11,-10,-46,-22
-4,-30,-48,-10,-8,4,-37,21
-1,-7,-21,-2,-4,-4,29,4
3,5,-3,1,-2,-2,-7,-3
-5,8,56,4,-3,-4,-32,-6
-1,-2,-24,-7,-3,1,3,-4
4,-7,-90,6,2,13,71,-4
-1,19,4,-2,-1,-2,-15,5
-3,-18,6,-10,-7,-12,-33,-7
-7,-6,-24,0,-9,-4,-17,-5
-6,0,72,-4,-4,-4,-14,-1
-1,7,-76,8,4,-2,-8,-5
2,5,69,8,7,-3,-45,-20
19,16,-55,18,15,29,54,25
-3,0,88,-22,-8,-1,28,2
-11,-46,-128,-9,12,-3,-5,-6
5,24,127,21,20,2,-3,-1
-6,-24,-32,-3,-14,-8,-10,-8
2,19,51,-21,-13,-4,-5,0
1,-6,-61,-5,3,0,-4,2
1,22,2,46,6,0,1,0
5,4,-7,-15,3,6,1,3
2,-2,-55,-7,4,3,0,-3
4,22,73,14,4,-1,1,5
-12,-46,-5,-24,-17,-7,-6,-9
-6,-18,-41,-21,-9,-3,-128,-13
1,7,0,7,4,-1,43,-7
4,3,-7,23,11,11,108,11
7,8,3,-22,-2,8,40,3
-13,-36,-25,4,-8,-2,34,-6
5,10,23,8,0,-7,-68,-6
12,11,-20,3,14,4,-68,7
-13,-13,-69,-12,-11,-11,28,-7
2,0,75,-10,-5,-5,-18,8
5,42,79,20,4,1,-14,0
-10,-94,-128,-20,-9,-5,-17,-4
-5,11,50,-10,-12,-7,-11,-7
0,11,12,0,-4,-2,-12,-4
7,10,-15,16,20,9,8,3
-2,2,43,12,4,-3,13,-1
7,9,-12,-11,7,6,8,5
-1,44,37,18,-4,-1,-4,-3
-27,-94,-128,-78,-33,-16,-13,-15
2,6,-10,32,5,4,2,3
5,12,23,9,6,2,4,2
-5,9,37,-5,-6,-8,-14,-6
2,-6,-22,-20,-6,2,-3,3
1,-18,-73,-16,5,5,10,8
2,38,86,23,10,3,2,-4
-16,-16,41,-15,-19,-7,6,-3
-4,-4,-3,-10,-12,-6,-4,-1
-6,-4,-20,-13,-10,-16,-49,-8
11,11,1,-2,1,5,26,9
-10,-2,-9,5,-2,-4,-41,-5
12,8,-75,-13,10,18,6,18
-9,5,42,34,-2,-14,6,-3
-5,-1,127,-7,-5,-6,16,-6
-6,-30,-100,-29,-11,-8,-24,-6
-8,0,-38,6,-10,-3,-20,-10
-6,3,8,24,-1,3,-10,-9
5,0,-14,-16,8,0,-24,5
3,4,18,-10,-4,6,32,0
-1,12,-17,31,8,-14,-26,6
3,-2,-11,3,18,4,-5,7
-3,-28,-54,-21,-7,-5,-15,-2
-4,39,127,-3,-16,-5,31,-5
1,14,51,-2,-4,-2,-6,-1
2,-10,-126,-16,-3,0,-6,-1
-1,1,71,1,0,2,-10,-5
6,33,108,-3,-3,-4,-28,0
-8,-8,-7,7,0,-1,63,-4
9,26,58,2,4,5,-19,5
3,27,-7,-11,3,1,33,3
-12,-54,-80,1,1,-1,-3,-7
-11,-24,-29,-22,-8,-3,-3,-1
-5,1,-27,16,6,-9,-40,-15
2,14,10,2,1,6,30,15
13,18,52,5,12,12,-1,13
-7,-10,-67,-40,-22,-11,-35,-1
-8,0,-31,-14,-7,-7,-22,-13
5,-11,-77,30,17,11,49,5
-7,-8,17,6,6,0,-3,-3
-7,-4,126,-9,-8,-1,-12,-7
-5,-2,-128,-20,-10,-9,0,-8
-5,0,72,-14,-17,-8,-49,-14
7,25,81,23,16,15,-62,13
10,15,-4,-20,1,2,127,10
-15,-59,-66,11,-10,-10,-2,-11
-18,-30,36,-7,-18,-17,-25,-15
0,15,-39,-9,-6,3,-13,-2
0,-9,-21,1,4,2,-12,-1
12,43,13,4,-2,0,-9,-2
-1,-12,-7,-1,2,1,-3,0
8,-6,55,-14,2,3,-1,6
-4,-3,-128,-35,-17,-4,6,0
-1,18,121,49,8,-4,-10,-2
-9,-18,-14,-7,-5,-11,-27,-6
3,2,50,-7,1,3,-1,2
-4,26,45,0,-9,-4,30,2
6,14,13,-28,-16,-4,2,2
-5,-29,-33,-7,-3,-2,-17,-2
-1,-9,-75,32,21,8,-10,-4
9,29,31,11,6,12,36,9
8,11,-9,-3,10,4,-5,7
-14,-23,-98,-12,-11,-14,8,-8
-21,-49,-66,-2,-21,-16,-42,-15
1,34,127,-19,-11,-1,12,-9
18,39,13,9,13,14,40,11
-6,-3,-25,-2,-2,-9,-36,-29
15,9,-10,5,8,6,-67,20
-2,5,-15,-5,2,4,127,3
4,-10,-43,0,2,5,-25,-1
-16,11,112,24,-4,-2,29,2
1,-1,52,-6,-12,-17,-30,-4
-8,-5,-22,-6,-7,-10,-35,-8
-7,-42,-55,-28,-4,-2,-26,-10
-2,3,50,25,5,-1,-18,-7
-1,-11,-11,6,9,3,-37,-6
-6,-1,15,-16,-2,-1,-2,-3
9,12,-102,12,-2,3,30,9
-6,-1,54,-9,-9,-2,-1,-5
-10,2,127,18,-12,-11,-13,-9
-2,23,111,-18,2,2,0,2
3,-17,-128,12,6,4,2,2
-8,2,127,-14,-10,-6,-5,-4
-8,-7,39,0,-1,-10,-18,-2
13,38,31,-1,3,3,1,6
1,7,-82,-7,1,8,11,1
-6,-2,-34,19,-4,0,2,-6
-9,-24,-3,-5,-10,-11,-3,-2
-7,-15,37,7,-1,-4,-3,-7
-4,18,33,-4,-3,-9,-33,-16
10,6,-11,-8,9,12,18,18
-2,-1,-65,3,3,4,-54,-2
10,40,127,29,16,11,60,2
-14,-48,43,-18,-7,-8,-17,3
-11,-69,-128,-35,-13,-14,90,1
-22,9,127,3,-23,-25,-30,-24
3,14,72,7,3,4,-6,0
7,12,-8,-1,0,4,-103,2
5,10,-15,-12,1,1,60,-8
8,9,-21,9,13,15,17,5
-3,-5,-19,-8,-16,-10,15,-1
-2,-2,-25,-1,-2,-5,4,-4
-2,7,-25,-11,6,2,-9,-1
1,15,21,48,12,1,-10,-3
3,-5,-15,11,14,-1,-4,0
-12,-61,-85,-20,-8,-4,-12,-12
0,-9,-66,2,2,8,5,5
-6,30,95,15,-7,-2,-7,-6
8,17,28,3,8,4,8,1
1,-31,-128,-32,-7,2,-46,2
-10,-2,75,-5,-9,-9,-5,-8
9,18,-31,-4,6,2,34,4
-12,-30,30,8,-11,-10,-15,-12
-9,6,103,-4,-7,-8,-4,-4
-1,-19,-56,-3,-1,-1,-21,-3
5,6,1,4,7,5,-7,0
2,20,-24,5,4,0,19,7
-9,-36,-56,-2,-4,0,-9,-3
4,-2,-7,-6,-7,0,20,4
-10,-27,-60,-23,-4,-12,-80,-20
6,6,6,24,3,0,4,4
-10,4,4,4,7,-2,-49,-4
15,4,3,0,6,14,75,16
-6,-17,-15,-21,-12,-7,89,-2
2,39,75,16,1,3,19,-2
7,2,-13,-5,1,-1,-24,-1
-9,-59,-78,-16,-2,-6,-17,0
-8,-10,35,-24,-9,-5,-25,-6
4,34,63,5,-5,0,-12,2
3,16,35,24,9,3,-3,1
-4,-11,-59,-6,-5,-10,-10,-5
-3,-4,-69,-22,7,-5,-26,-5
-1,-10,37,6,-3,0,1,0
-6,7,57,-2,-6,-5,-4,-5
8,22,19,-9,-5,0,2,-2
-1,8,-13,-15,-11,-3,0,-1
-7,11,99,-24,-26,-1,-4,-7
-7,-20,-105,70,27,-2,-2,1
3,-16,-105,2,13,5,6,-1
6,28,62,-8,4,4,7,7
-12,-51,1,-22,-16,-9,-3,-7
1,-11,-74,-13,-5,-2,-6,-7
-17,-12,39,-21,-16,-17,-56,-4
18,18,-44,-8,7,11,42,17
-16,-7,-13,4,-8,-10,-28,-7
-26,-22,-12,-14,-27,-20,3,-14
18,22,28,0,5,6,-21,1
-7,-23,-27,1,2,-1,25,-11
9,13,17,7,8,5,-108,3
9,38,32,7,12,6,127,4
-8,-40,-47,-15,-4,0,-3,0
-4,-11,14,-5,-8,-9,-75,-5
-11,8,77,0,-8,-6,15,-9
-3,-2,-128,-11,-1,3,58,-2
-4,-3,6,-13,-6,-5,-13,-10
-1,16,10,15,-5,-22,-128,-11
13,30,110,17,9,7,101,25
2,-32,-94,-1,2,6,41,3
-8,-62,-71,-36,-9,-10,-25,-4
-18,12,102,2,-14,-9,-27,-17
0,20,68,5,4,1,-2,6
5,4,3,-42,-14,-2,-6,-2
-9,-23,-26,42,-9,-7,-11,-8
9,16,-10,28,25,8,5,7
0,-15,-69,-14,23,8,3,0
-3,-18,-39,-11,1,-5,-1,-3
3,40,116,-2,-9,-6,-6,-5
-1,-40,-128,-14,-12,-5,-3,-4
-4,-6,62,-6,-6,0,3,-3
-5,-17,-36,-8,-8,-1,-1,0
2,1,38,-7,-6,-3,-1,4
-5,5,48,1,2,0,-22,-7
-8,-22,-128,-8,-3,1,-42,-2
-6,-3,-90,-14,-4,-3,-72,-23
15,23,64,20,15,17,116,10
7,1,23,4,1,7,52,21
-12,-12,20,-1,-11,-4,-9,-11
-6,-23,-37,2,-3,-3,4,-7
-7,6,-6,-2,-5,-10,-86,-12
-1,9,6,6,3,4,-8,-2
1,9,33,-28,-4,5,4,-11
8,-11,-49,30,8,5,-31,9
-8,-15,-94,23,1,-8,-12,-4
-6,23,62,-3,1,-3,6,-10
4,1,-10,-18,-1,8,68,6
-6,-1,35,2,-20,-13,-11,-6
2,9,-14,-19,-7,-4,-17,-4
5,8,8,67,12,6,-9,-1
-11,-16,-65,-27,16,0,-9,-6
-1,-3,127,-12,-1,-1,-10,-1
1,9,-90,-24,-9,-4,-4,3
1,22,6,8,-8,-2,-3,0
0,-2,26,10,2,0,-1,0
6,20,82,0,5,3,5,9
-6,-48,-128,-8,1,1,-3,-7
-21,12,127,-22,-28,-18,-19,-23
7,25,57,0,-2,-3,-9,3
1,9,1,7,0,-1,3,3
4,16,33,-2,-2,-1,-8,1
2,0,-20,15,2,-1,-39,-1
-11,-3,-6,-12,-10,-12,46,-10
-7,23,116,1,-6,-9,-38,-2
21,1,-113,17,27,20,64,23
-11,-40,31,-9,-11,-15,-43,-11
-19,-15,127,4,-12,-12,-77,-16
1,39,37,-17,-3,2,78,-14
-7,-53,-122,-13,-8,-3,-83,-13
-3,-15,10,19,6,3,40,9
3,10,14,30,16,4,0,3
10,14,-18,1,-7,4,71,9
4,14,-17,-12,-4,0,-5,1
-1,8,43,8,1,-1,-19,-1
-11,0,21,-30,-16,-11,-24,-10
3,32,-2,3,2,0,-12,0
4,3,-97,16,10,0,-12,3
1,-45,-87,-21,-4,1,-1,1
-19,-19,64,-11,-14,-4,-5,-9
-10,-29,-21,21,-2,-10,-10,-8
0,8,9,-18,-5,-4,2,0
1,15,48,9,-4,1,-4,1
0,4,0,-1,0,-4,-21,-7
2,1,-14,-3,3,8,10,2
14,30,-8,1,12,8,15,10
-16,-97,-90,-14,-8,-10,4,-7
-8,10,21,-11,-13,-9,-2,-2
1,12,99,11,-7,-1,-15,-5
-3,10,38,-25,-7,-7,-64,-11
-1,-5,-51,31,6,-3,45,3
4,5,-64,7,16,10,42,5
0,-2,-51,-8,-12,-7,-75,-2
-7,-26,-42,-10,-5,-2,127,-12
-4,16,38,12,-13,-6,-24,-2
-6,-28,-109,-19,7,-7,-21,-5
-7,4,56,1,-7,-8,-40,-12
-8,-3,17,-9,-8,-11,-33,-4
2,-3,-40,-21,-6,-4,-25,4
12,7,19,8,11,18,9,18
-7,-10,-63,-11,-9,-8,17,-4
0,-5,-6,14,-5,-7,-9,-2
5,26,25,-13,1,1,-38,-5
-1,37,76,13,5,-1,-17,-6
2,-19,-52,-5,0,-5,31,1
0,-49,-53,-17,-4,-3,7,1
-7,-18,-70,17,2,-3,-7,-4
-5,0,26,4,-8,-6,-9,-2
-4,9,19,-7,0,-6,-11,-4
4,9,57,-12,4,3,-1,3
8,6,-124,-2,11,18,11,9
-13,22,127,14,-16,-17,-12,-13
-2,-19,-93,4,-3,-2,-1,-2
-1,-21,-17,5,8,-3,-7,-2
-5,-11,42,3,-1,-1,4,-1
4,18,3,6,7,7,3,1
2,1,5,-7,-4,-4,-33,-10
9,12,24,-14,0,7,32,7
-4,0,-103,-15,-21,-11,-19,-5
-8,-30,-19,38,18,9,47,6
-12,-61,-128,-25,-5,-3,-6,-7
-12,-3,127,-3,-12,-9,-24,-13
2,9,94,3,-1,-6,-32,-8
2,17,41,4,8,17,26,10
1,-5,-128,-10,-1,-2,8,5
1,-1,40,-2,-4,0,-5,2
3,18,-74,-7,1,-1,-9,-1
-5,4,82,15,-3,-2,-8,-10
0,-12,-22,-4,-3,-3,-12,-3
1,-16,-81,-8,2,1,7,5
-15,-4,6,-6,-7,-4,-20,-2
8,54,99,-1,4,8,65,9
1,-63,-108,-8,2,-1,5,1
-10,-51,-128,-14,-11,-6,-14,-7
-10,2,127,51,2,-6,-13,-4
-1,12,58,-9,1,-1,-18,-9
15,20,12,-14,8,10,22,17
7,20,-37,6,-14,3,3,5
-6,-15,-72,24,18,1,-5,-4
-12,-7,127,3,-1,-7,-10,-14
-3,-12,-128,-13,-6,-5,-5,-6
-4,-3,-15,-18,-7,-1,-1,-3
-3,-1,11,-4,-7,-3,-5,-4
6,-2,-111,-41,-6,6,8,7
0,3,-14,-3,-10,1,-4,-5
2,4,28,50,15,-4,1,-6
0,37,72,0,16,9,6,2
9,-33,-52,-6,3,6,2,2
-9,-35,-93,-29,-12,-9,-6,1
-3,-2,20,-25,-12,-8,-25,-4
1,22,53,14,-6,2,80,3
-9,-8,38,10,-1,-5,-12,-9
-1,5,-5,-9,0,-2,-23,-5
4,17,-5,1,2,1,40,3
-2,5,102,-5,-6,-1,-11,-5
-1,11,-128,-13,-5,-4,-5,2
-2,-12,-7,0,-3,-1,-1,3
-2,-11,30,-12,0,0,24,5
1,-4,-6,-14,9,0,-12,0
-16,-18,-16,21,-5,-9,-8,-8
-4,20,7,-4,-7,-1,0,-7
4,3,10,-7,2,5,3,7
-1,-21,3,-2,-9,-4,-4,-5
-1,13,-26,-20,-7,-5,-8,1
-11,-25,46,7,1,-10,-19,-8
1,18,69,24,4,1,12,5
6,22,32,-38,-9,3,2,7
-7,-43,-128,44,11,-2,-8,-7
-14,-21,46,-20,-5,-5,-23,-12
0,0,-29,-42,-15,-3,-27,4
-1,10,25,10,-11,6,98,4
3,11,8,14,15,0,-3,0
2,-2,-46,-13,2,0,-8,-2
4,4,3,-2,-1,1,-8,0
-7,-7,-1,-8,-10,-11,-23,-7
11,4,-13,3,6,10,16,7
12,7,-17,-9,8,13,-2,15
0,37,27,10,-3,-3,1,-4
-6,29,108,10,-13,-10,-2,-14
-13,-92,-104,-29,-11,-4,26,-5
-16,-32,-27,-15,-14,-9,-48,-9
1,14,55,-2,-4,1,86,1
9,13,5,6,10,10,4,2
-2,2,6,-1,0,0,-45,-20
9,18,-39,0,9,7,-1,18
-8,19,21,3,-10,-6,88,-6
-14,7,84,7,-13,-16,0,-11
1,8,9,-10,1,-2,-9,-3
5,3,-16,13,6,4,-31,4
-1,-2,-14,1,2,-1,-1,1
5,-5,-41,-10,4,6,-5,1
-5,1,-26,-9,-18,-8,-13,-5
4,14,101,2,-4,2,-2,-1
2,14,-128,19,10,0,0,-1
-13,-44,-11,7,-4,-6,-8,-3
-4,-25,-27,-12,-1,-1,-5,2
-1,5,28,-11,-7,-7,-9,-4
1,16,-6,-9,-5,2,6,1
-2,22,119,5,-3,-8,0,-5
1,-34,-128,-23,0,0,-6,4
14,47,-3,8,9,2,-7,2
-14,-37,20,-1,-15,-12,4,4
-3,-8,7,-1,-1,4,5,-1
0,3,8,-2,-4,-4,-25,1
-4,0,-3,-2,-1,-13,-16,-4
-6,4,-1,-1,0,1,2,-11
11,8,4,3,12,12,33,15
-7,-2,-16,-10,-3,0,5,3
-12,-10,-21,-10,-8,-10,-45,-15
1,2,16,2,5,7,23,-3
1,15,19,0,-1,-2,48,7
7,-6,-41,5,6,5,-2,5
-8,11,127,-4,-10,-6,-11,-9
-12,-37,-95,-16,-14,-21,-59,-27
-8,11,127,-4,-10,-6,-11,-9
-12,-37,-95,-16,-14,-21,-59,-27
3,-1,26,7,5,6,-33,7
5,12,29,1,6,11,127,13
