Channel_1,Channel_2,Channel_3,Channel_4,Channel_5,Channel_6,Channel_7,Channel_8
-3,-5,13,56,7,-8,-7,13
12,6,3,-82,-24,-2,9,8
14,-4,-7,5,37,10,31,100
-25,4,2,-4,-2,-2,-24,-128
21,6,13,-1,-14,-5,-9,-70
6,-13,-13,25,-57,-22,-8,23
-7,3,-13,75,55,9,8,24
-19,-7,-3,-16,19,4,13,21
-5,-23,-41,-73,0,-2,9,17
16,-1,16,20,-7,-3,9,72
-3,0,35,17,-23,-9,-13,-56
-6,3,-9,7,-7,-8,-28,-67
9,0,44,-13,-5,-1,-9,2
-15,-9,-15,8,-9,-4,3,7
-32,-25,-35,21,-3,-13,-63,-128
-12,-20,-95,-15,5,-1,-19,-92
4,1,49,-35,-19,-7,-1,2
-1,-4,-30,-48,-2,-4,6,24
-2,-2,13,46,-32,-11,7,19
7,-1,-26,21,6,-2,12,19
16,8,16,24,63,18,2,12
-3,3,-20,-9,-23,-8,-3,1
-15,-24,-4,37,-47,-17,-9,-7
-4,-3,1,1,75,21,6,-6
22,4,17,-40,-36,-11,5,43
-15,-23,31,45,-3,1,-18,-128
-16,8,-12,58,38,10,-3,-18
-33,-2,-1,35,-16,-10,10,24
6,-5,5,-25,-7,-8,-2,25
44,2,5,-16,24,12,30,51
18,11,36,51,-8,-3,-13,6
-11,-28,-30,-29,9,9,-5,-24
-22,-4,24,-7,-8,-8,-11,-20
15,9,33,-53,1,7,21,125
2,-7,-111,58,19,1,-3,-74
-12,8,34,-18,10,14,-2,-58
-1,-7,-11,18,-19,-11,0,38
12,7,20,5,-3,-3,3,58
-12,-20,-51,-42,-14,-4,-1,0
-8,2,17,11,-21,-9,-3,-3
6,17,29,13,-19,-2,7,2
-14,-6,-5,-31,-22,-17,-15,4
9,-2,-18,-29,-2,0,4,-21
7,9,32,70,37,12,3,-31
-4,9,28,0,-11,-4,-4,10
3,5,-7,-6,-7,0,3,16
7,5,-11,3,-11,-15,-31,-78
-10,-30,-9,15,5,3,24,59
-7,15,46,33,-28,-7,13,15
1,2,-23,-110,25,7,-14,24
-9,-2,-4,-14,-10,7,-7,-55
-38,-13,-4,-52,-38,-16,-22,-101
-3,4,5,-6,2,1,3,27
-4,7,12,18,-15,-6,1,15
-5,-9,8,10,-24,-8,-3,11
-5,-7,16,-11,-29,-14,-8,-2
5,9,12,14,41,12,16,6
-3,-27,-30,15,4,3,-4,-8
-2,17,1,-36,-11,0,-5,4
-1,-4,-9,14,-2,-9,-6,-7
11,-2,38,41,-18,-8,3,9
-29,-23,35,43,31,2,-5,-11
-6,5,-103,-26,18,8,6,-11
9,9,10,-16,-10,-2,10,40
-6,2,-1,-17,-17,-10,-24,-25
4,0,33,-3,-6,-1,-14,-27
-32,10,6,-9,-11,-3,-9,-76
8,1,8,70,-27,-14,-5,-7
33,6,20,-23,28,5,4,17
4,-21,-22,-27,8,-1,0,116
-33,-22,27,2,11,0,4,-96
5,15,-63,-3,-25,-4,2,-34
-6,8,20,-4,-14,-5,-3,-8
-13,-23,-46,27,6,-3,-7,7
7,12,33,5,-2,1,13,14
3,-3,15,-1,-8,-6,-6,9
13,1,5,-51,-26,-7,3,39
-11,13,-1,59,8,-4,-3,-45
0,5,9,20,4,2,1,8
-20,-3,14,-5,10,4,-2,-13
-4,10,15,5,-67,-20,5,43
5,-44,-10,43,22,-6,-6,-18
27,19,-49,-84,89,31,-2,-36
-25,-24,-42,-7,-11,2,-9,-17
5,-6,11,4,-21,-4,22,96
6,16,25,5,-23,-9,-3,5
-21,1,9,-28,-26,-8,-11,-75
-5,0,0,4,-12,-2,-9,-34
8,4,-8,52,30,8,8,23
2,0,15,-9,-6,0,4,14
-2,1,-1,22,-34,-12,-2,11
-4,-9,30,35,4,-2,-4,0
-2,-7,-54,-128,48,22,16,7
7,-3,51,15,1,-3,2,8
-11,6,6,22,-12,-7,-5,-6
-11,-13,4,-13,-16,-5,-6,-7
-2,1,-1,-9,-18,-5,-1,42
-24,2,3,-19,-3,-2,-20,-37
0,9,3,-2,6,1,26,-27
60,2,-11,21,15,2,-2,9
-5,-12,-18,-18,-11,-4,11,23
-8,19,10,-11,-4,-2,-1,6
-12,-8,-8,23,4,-2,-13,-40
2,16,5,-62,-2,0,-12,26
-11,12,-5,52,-4,-3,-10,-43
-1,-31,-72,32,-30,-10,-4,-34
6,6,34,127,51,6,-4,9
7,8,-22,-99,7,5,11,58
-8,-2,36,16,19,2,0,-43
-20,0,-14,-16,-4,-2,7,15
-5,1,3,-3,-2,-3,7,10
19,7,-4,-53,-43,-9,-4,29
-9,2,22,127,-4,-6,4,-68
-5,-22,-7,-22,29,-3,-28,30
17,6,-4,-53,0,1,-10,-39
-31,-20,3,2,-11,-6,-4,-43
-8,-10,-32,-47,-27,-8,6,11
-1,15,-11,18,-18,-5,2,16
2,9,0,3,33,9,6,13
-4,-4,-24,-2,0,0,1,8
10,1,24,9,12,4,6,7
3,-5,-24,4,-10,-2,5,50
-9,-2,67,6,-10,-6,-13,-24
12,14,8,-29,-5,0,-19,53
-24,-3,-27,-21,-23,-7,31,-31
-28,-23,-13,58,7,-6,-9,-83
41,13,33,9,12,4,-8,20
-8,-6,32,30,63,15,1,21
8,8,-4,-18,-5,7,8,21
-9,-28,-77,-1,-27,-9,-9,4
0,7,13,32,-26,-9,6,39
-1,11,-10,-51,-13,-7,-5,-22
-5,-7,52,9,-14,3,3,-22
3,6,46,-37,21,2,-8,-7
0,6,-26,-2,-17,-3,-4,2
-9,-2,0,25,-33,-13,-6,0
0,-26,-19,127,56,10,5,4
2,7,15,-128,3,3,13,54
-14,-1,23,-40,6,-3,-28,-39
14,-7,-67,8,-31,-11,-7,-58
-21,-23,7,-31,-17,-8,-2,3
-4,11,21,16,13,-3,3,35
2,11,-7,4,-11,-8,-11,-22
4,5,18,-10,-12,-6,-2,17
2,-19,-68,-4,-20,-2,14,66
-7,22,17,10,1,-11,-39,-68
2,23,52,-53,-1,4,4,-101
-6,-7,39,0,1,7,11,1
-7,-10,-43,51,-5,1,1,35
-11,0,35,-16,14,1,-9,-22
0,14,-32,-35,-10,-7,-19,-26
14,-37,-128,18,-26,-4,1,34
-7,-15,33,-83,15,-3,9,32
1,18,-4,16,-3,-2,-2,10
12,19,49,16,26,12,7,-14
-11,1,-38,28,-17,-5,-18,-7
-8,-15,-29,-11,3,-3,1,7
-7,-10,35,-30,-9,-4,0,-7
-10,15,21,61,47,9,-1,-10
34,-6,-43,6,30,12,12,103
-10,19,16,14,-62,-13,7,-28
-12,-9,7,68,19,-6,-25,-37
15,2,-4,-117,12,8,2,6
-8,-22,-2,-60,-18,-6,-4,3
15,5,12,-99,-58,-12,21,66
-11,5,33,49,-14,-6,-8,-17
5,25,17,-26,36,21,4,-34
0,-2,-26,-5,-5,-2,-4,-31
20,12,41,-4,-5,3,3,31
-1,-11,-31,-15,-14,-7,-2,-22
-13,-4,-7,4,-14,-10,-21,-10
-6,1,19,-21,-3,1,0,4
5,-11,6,9,11,7,17,127
10,15,15,-5,-18,-15,-48,-83
-2,-7,-48,9,26,12,23,-127
-17,8,31,39,-4,7,-7,-14
-4,-1,5,-39,-1,-2,-2,21
6,4,-4,2,-9,-1,7,32
-16,-4,-28,3,13,2,0,12
7,-18,1,-49,-30,-9,1,14
15,-1,44,-5,7,3,11,19
-4,-11,31,39,22,-3,-1,11
-3,1,-49,53,17,5,2,74
11,14,-4,-2,-10,-1,5,-17
-12,-19,-45,-26,-37,-15,-21,-128
-28,6,59,-9,-51,-15,-26,-25
2,-2,-6,51,98,26,-2,14
5,-27,-92,-102,6,3,2,-29
12,-3,51,6,-25,-6,20,63
10,15,-7,-8,-18,-7,-5,19
-13,-1,18,6,-43,-16,-1,9
-15,-10,-10,22,16,3,3,-7
27,16,-3,-8,57,23,2,-40
-12,0,28,-16,-19,-3,0,-18
-1,14,12,-19,-27,-12,-4,24
-10,-12,12,52,32,2,24,67
-6,-50,-31,1,-11,-5,6,-25
31,5,-20,-4,-9,-4,-36,-28
9,11,22,-2,-11,-3,-4,24
-25,-1,38,14,-6,-3,-2,-19
-22,-13,-38,-54,4,1,-15,-34
0,-2,-12,-8,-28,-11,2,-55
11,2,-17,54,43,12,4,-13
0,-6,4,-2,-7,-5,-42,1
11,20,59,51,0,-4,13,70
-16,3,12,-27,-5,-7,33,-19
5,5,-5,-43,-10,-2,-10,1
5,9,-53,-51,5,-2,-22,5
7,-5,4,33,9,6,-1,0
15,-10,-2,20,-37,-11,1,9
0,-1,14,20,55,11,8,17
-6,3,2,13,-13,-10,-11,-30
12,9,3,10,19,7,-3,127
7,4,4,-11,-21,-9,14,30
-46,-1,30,104,-56,-23,-28,-128
0,-12,-31,-124,94,28,12,15
-7,-9,6,-14,-3,-9,-14,20
9,9,8,-14,-22,4,12,60
5,12,-8,51,11,-6,-1,9
0,6,63,-1,-9,-8,-4,0
-4,-9,-53,-11,-14,-6,0,1
1,-4,9,78,-17,-8,-2,27
-1,11,-46,-67,2,2,-4,-10
-34,-27,-105,-20,9,-1,2,-46
2,-2,6,6,19,6,4,-4
36,-11,-9,-3,-16,4,9,70
-6,-7,58,-35,-16,-5,-7,2
-1,14,-107,-20,3,1,9,-6
0,1,4,11,-7,-2,8,-22
-24,-18,17,5,-11,-9,-28,-64
1,17,44,28,-36,-10,-6,-4
-3,-5,-20,97,63,11,5,4
3,-9,-31,-58,20,7,18,116
-9,2,53,-41,-18,-5,1,-11
-12,7,7,-5,-19,-6,-8,-61
14,-7,-23,13,11,2,-10,1
-11,-6,10,5,-22,-6,0,5
-1,5,-21,-50,9,5,14,20
-3,2,-51,11,9,0,10,65
4,-10,22,97,33,-6,-14,3
9,31,0,-128,7,10,1,-59
-24,-2,-42,56,-33,-17,-22,-77
10,14,-78,-71,-19,-7,-6,44
-5,0,89,42,14,4,4,-10
-6,-27,-30,23,16,3,1,6
-14,-10,1,20,-5,-2,9,-1
-4,4,-85,-58,-19,-5,10,90
39,28,21,31,-5,-2,-13,-21
-4,2,-43,6,27,4,-23,-70
-15,-42,9,-105,-14,-1,-1,-13
-23,-8,23,-16,-21,-14,7,0
6,36,76,56,10,3,6,18
25,-9,-128,9,0,1,5,30
17,-3,74,-19,-6,-3,13,89
-15,-1,-25,-4,2,-1,-8,-123
-17,-8,10,-5,0,2,-20,-94
0,1,22,20,-6,0,-2,1
6,-12,-26,-20,-10,0,4,29
0,-1,-52,-16,-3,-6,-2,20
13,-8,42,39,23,8,12,19
-4,34,44,4,-27,-6,-17,3
14,7,-23,-46,13,5,29,89
-12,-12,-6,11,-23,-5,29,-35
-7,-9,1,24,7,-7,-34,2
24,28,-2,-40,18,5,-17,-66
-2,-12,27,27,-14,-8,4,-10
-2,-27,-105,4,8,8,1,14
0,-5,-30,-10,-55,-27,-2,12
8,-9,24,39,22,3,12,53
-15,-4,20,-3,14,1,-13,-59
-11,1,17,34,-2,-4,0,-18
0,17,30,-36,-29,-9,-7,6
-2,-4,-14,-52,-14,-2,8,-16
-6,-5,-20,101,28,8,6,-5
2,-11,-13,-4,-12,-10,-29,45
-2,-9,20,-87,-20,-4,-3,-74
13,1,-2,6,7,1,21,42
-20,-13,3,31,-13,-7,-10,-13
-10,5,2,-20,-5,-8,-14,-83
30,1,-17,-19,-10,-3,17,74
-67,-43,-1,-28,-17,-13,-32,-94
5,-1,-10,69,34,15,6,-9
-5,3,-5,-15,8,-2,-19,46
9,8,-19,-2,-9,-4,-1,16
-5,-21,4,-12,-15,-11,21,-76
5,2,22,38,-12,-8,-8,22
0,-5,4,-10,18,5,-4,16
-7,0,-10,-53,-6,-2,-4,4
-10,-14,37,17,6,5,14,4
0,-1,46,-52,-4,-4,6,60
10,15,-13,62,70,16,-34,-41
16,-11,-128,29,15,-2,-26,-64
-22,-28,73,12,-25,-11,-5,-19
-12,7,1,-8,-25,-9,0,-64
-2,-2,13,13,-33,-8,6,10
1,13,48,41,9,4,7,22
9,-10,-9,-73,-1,7,13,26
7,-3,-40,-4,67,19,13,62
-11,3,-11,-57,-7,-5,-15,-35
6,14,2,10,-30,-6,-10,-21
13,7,39,22,20,4,5,6
-2,-35,-28,6,-30,-8,-5,-5
-16,-8,-12,19,2,-7,-3,4
-6,14,46,45,43,6,-3,9
-5,-7,-29,-1,1,-5,9,11
23,-10,-20,-16,-6,6,11,5
29,22,-21,-7,-13,-8,-6,30
-2,-7,17,5,-5,2,0,-5
-24,-20,-17,-20,-8,-4,-4,-7
-1,11,8,5,0,1,8,15
0,-7,-13,-7,-10,-8,-4,-10
-2,-3,22,16,15,3,2,-30
-1,1,-17,0,-7,7,28,70
-16,8,52,-52,-15,-2,-11,-69
12,6,3,-19,-37,-18,-12,-37
0,-34,-54,127,92,16,-11,30
-3,-7,12,-52,11,3,8,0
-8,7,39,1,-17,-6,3,-21
-6,15,68,-13,-44,-11,4,10
-2,1,-52,16,-19,-8,-6,6
4,-25,-7,2,44,13,-8,11
-2,-5,14,-1,-35,-5,8,67
-2,-7,4,-13,-14,-9,2,-46
17,9,-6,12,26,7,-3,-15
-24,8,-17,-31,-28,-8,-7,-25
-3,6,11,19,23,2,1,9
4,9,-14,17,-19,-7,1,12
-12,-4,9,13,22,3,-1,4
7,-8,25,-9,-8,-5,5,1
26,2,-4,0,2,4,16,28
-10,10,-5,-20,-10,-6,-5,25
-2,-12,0,17,0,2,1,-33
-11,0,-1,-6,-6,-5,-8,-41
-6,4,7,10,2,0,0,1
-10,-3,-6,3,1,-1,24,50
3,17,19,-5,-2,2,8,-22
14,22,12,-10,6,-9,-53,-79
-3,-35,-64,-15,-6,-3,-14,18
-5,-22,-82,-10,-6,-3,0,10
-6,30,61,36,-4,4,7,13
-7,7,48,-21,1,-4,6,2
8,-5,-68,3,17,7,4,3
-1,2,-11,-3,-10,-3,9,10
10,23,21,-21,-14,1,8,27
-7,9,83,82,-47,-14,-18,-52
6,-12,-32,1,16,5,12,31
-7,-29,-73,-60,27,12,4,-74
-6,4,24,-10,-2,1,19,18
-9,5,1,11,-15,-6,4,-13
15,3,5,-58,-21,-7,-2,41
1,4,14,16,-8,1,-26,17
2,12,-14,-26,-19,-1,-1,-5
16,7,-67,85,4,-2,12,92
-11,-1,16,17,28,-6,-26,-128
-29,-14,-78,-85,-16,4,-7,-36
-2,-29,41,24,-22,-8,2,10
6,-1,43,18,28,7,-1,31
22,-1,20,-12,-11,-2,21,74
-11,-16,-83,-2,-16,-7,-1,-24
-4,12,-8,1,-7,-5,4,-10
3,0,-23,14,-14,-7,2,11
8,0,37,-14,-5,-3,10,67
-13,-6,-10,-12,-2,-13,-16,-39
-16,-18,-43,-18,-20,-1,5,-65
6,-23,57,10,-9,-4,-2,-3
22,21,26,73,58,19,7,26
-13,2,47,7,1,4,7,10
-11,-8,-30,-36,-23,-9,-14,5
-1,1,-6,41,-24,-9,-6,-6
7,-4,-8,-78,9,2,4,82
-16,22,34,-45,5,2,-14,-128
-3,10,-5,41,26,10,0,-67
0,-7,29,-39,-27,-4,1,26
-3,-2,-6,-10,-31,-11,-7,14
4,7,-14,46,22,7,5,19
3,3,2,-45,3,3,8,13
-14,-6,14,62,-32,-8,-7,-3
0,3,-15,-49,-11,-7,-9,51
25,-1,-26,9,14,-4,3,-31
-8,31,40,-63,20,8,-7,-57
6,-2,-14,31,-23,-11,-26,2
-4,-23,-5,-64,-42,-10,3,4
-9,-17,24,45,-20,-11,-4,22
8,15,-4,108,84,28,21,12
-16,0,-5,-61,-14,-2,7,-44
1,10,-3,-15,-21,-13,-12,22
7,-14,-2,-13,-38,-13,0,-6
-5,12,12,46,30,6,-4,-41
-8,-37,-24,-15,8,10,4,-6
2,29,53,-30,-2,1,2,14
-9,-4,-34,17,-11,-9,-12,-28
6,-8,-9,5,-10,-1,-8,66
8,23,20,-9,-1,-1,9,-11
-13,-32,-40,-29,1,4,6,-73
-18,-12,16,-6,-1,-6,-15,11
0,-29,-8,38,-17,-8,-16,60
8,25,-11,-94,-40,-13,1,35
12,3,41,20,40,19,17,-51
-18,-3,-38,18,51,19,11,21
-12,1,29,27,-7,1,-15,-30
-11,-26,-30,-36,-25,-11,-12,-42
-10,-3,23,-40,-15,-16,-11,4
15,7,-13,5,-2,4,9,26
6,-3,-7,26,-5,-3,8,15
-1,12,44,-6,-43,-12,-6,3
-2,20,58,64,20,-1,-3,-4
-7,-58,-92,-39,1,-3,-3,-4
-3,8,31,-60,0,3,1,-1
-4,-1,3,59,23,9,0,-7
1,22,44,59,-5,-2,6,18
-1,-16,1,-62,-46,-11,7,91
10,-12,-14,-113,-30,-17,-12,24
2,3,-23,69,41,4,-47,-100
-7,3,11,2,-7,-1,0,-45
-5,-10,-1,-18,-11,-9,8,13
-1,17,-2,-6,-24,-2,8,8
2,-5,10,2,-17,-4,-1,29
6,0,-2,-24,50,16,4,13
-7,-1,2,29,-5,1,2,-20
3,-4,-1,-55,0,6,5,-1
-44,7,-6,-47,-58,-14,-5,-7
-4,12,11,127,44,3,-12,1
82,-19,-128,-77,30,11,14,55
-4,8,123,-49,-21,-8,-14,-19
-7,-9,7,-1,-13,-9,-3,21
-15,-1,29,-46,-32,-7,9,-27
-9,-17,-13,35,-31,-11,-4,-5
0,13,-64,95,77,15,-13,-2
-1,-3,16,-2,0,0,3,10
-2,-2,-5,-11,-16,-7,0,-3
-12,-16,-33,-6,1,2,-6,-17
-5,15,59,-11,-13,-4,-1,0
1,3,3,-4,-5,-1,2,4
-3,11,9,23,-9,-1,-12,-8
4,-45,-85,-50,11,-3,5,44
-6,11,-12,75,-68,-22,-13,-63
4,16,61,22,23,7,-1,17
0,0,-32,-128,51,21,5,-30
-23,-32,10,36,25,4,0,-29
30,6,14,-3,-30,-9,38,127
4,-10,-56,-65,-45,-15,-16,-25
-12,2,-31,54,-10,-11,-29,-86
-2,14,101,56,20,7,3,5
-6,0,-13,-47,-35,-17,-2,11
4,-31,-63,-20,-38,-11,23,77
4,13,-25,-48,49,13,-1,-26
1,9,15,-49,12,4,-13,5
1,-1,19,3,-11,-5,1,23
2,3,-25,6,-8,-1,9,9
12,4,16,-1,-2,2,14,52
0,-15,-66,-10,0,3,-14,-53
-16,-23,72,31,-6,-5,-27,-32
-16,20,10,-10,-6,-5,26,-21
29,11,14,1,0,-1,14,65
-8,-9,-28,-11,-6,-3,-35,-44
-8,7,30,-7,-8,1,-6,-53
-12,1,5,3,3,0,-2,5
-12,3,-1,-1,-29,-13,-5,3
13,-8,-72,-15,-30,-6,-2,11
7,-31,-98,114,127,44,16,17
8,5,-39,-72,-13,-2,-4,11
-23,-15,29,-44,-47,-15,-14,-10
-15,-10,-7,-20,-16,-12,-14,-13
-2,8,16,64,2,-1,6,14
-1,-8,2,-34,10,-2,-1,-16
5,7,15,-18,-31,-8,-4,-7
-1,-13,-29,80,-33,-10,-1,-3
-7,-10,-6,22,79,17,8,-1
7,6,11,-87,21,11,8,3
3,5,-2,-7,-11,-8,-3,35
-3,-5,-33,37,5,6,8,19
-9,9,10,11,-14,-5,-12,-41
12,1,91,6,-14,-5,-6,56
-1,-1,-73,-12,-6,-3,-9,22
-13,-9,4,-40,-10,0,-15,-100
9,-4,21,58,28,10,2,-32
-7,-13,15,32,0,-9,-4,12
-12,-26,-52,-13,-4,-3,5,16
-3,5,12,-14,-10,-2,7,20
1,22,14,6,-1,0,4,10
6,4,-1,-20,-8,1,-3,8
20,6,18,30,16,3,3,-2
-11,-16,26,-46,-8,-8,-14,-39
-13,10,25,56,21,1,-13,-29
-13,-8,-33,-36,-26,-2,-2,3
-4,6,14,-19,-15,-12,-8,2
19,17,29,47,57,18,5,3
3,-47,-128,-91,-18,-8,9,8
-12,-4,40,15,-15,-8,-9,-23
-14,-25,-85,3,18,-3,-13,-13
2,4,17,-1,3,9,3,-4
-11,3,15,65,-36,-7,-4,-5
-2,3,7,-11,-45,-15,-7,-2
21,1,4,-49,58,18,16,14
12,7,-20,-61,6,8,11,34
-6,-2,8,-15,-28,-15,-2,25
1,0,2,2,-24,-8,-10,-25
-6,-15,-67,-9,-26,-11,-15,-2
-1,-26,-78,27,5,-5,-1,-6
-45,-2,94,45,5,-4,-4,-113
4,12,12,-26,4,1,6,21
17,9,-38,-18,-2,8,26,65
-14,2,2,-3,-16,-9,-45,-80
-1,-35,-28,-23,-6,-8,-17,0
-4,-7,-59,28,4,3,10,10
-6,-17,-14,-12,10,3,-1,17
0,17,35,-2,-1,0,13,8
35,29,62,4,-1,2,27,119
-13,-24,-119,-29,-26,-9,-24,-103
3,24,-29,-9,-1,-1,13,-20
-1,16,125,2,-10,-2,2,-3
-22,2,-53,83,47,13,-3,1
2,-37,1,4,-13,-5,2,23
-7,-13,-23,-28,21,9,18,25
-4,3,-10,-52,-22,-8,-12,39
0,25,21,-41,-67,-19,-22,-76
6,-19,-72,17,-10,-5,-2,-22
22,-21,-60,50,82,20,31,127
-2,9,32,21,-2,-2,2,-58
-22,46,107,33,-40,-12,-10,-73
4,1,8,20,9,3,6,20
-22,-47,-9,-83,13,3,-20,-25
9,-9,-31,-2,-11,0,6,21
18,25,57,39,-3,3,7,21
6,2,-24,-45,14,3,11,6
-7,16,62,-14,-8,-2,1,23
6,25,52,52,-1,1,5,-6
-2,-25,-49,15,-5,-9,-5,43
12,33,69,43,6,2,1,6
-32,10,30,-63,-4,-5,-10,-81
14,-56,-73,-23,-15,1,28,105
-5,-5,-23,42,4,6,24,22
-25,-5,17,-9,4,-5,-55,-128
15,7,16,-9,5,-7,-12,-14
1,6,1,0,-17,-5,2,22
-5,8,8,-18,-31,-12,-6,4
5,7,11,14,-4,8,4,4
0,-19,46,53,29,6,-3,14
6,-4,-58,-67,20,11,7,11
-13,21,45,-1,-19,-10,-2,-11
2,6,19,16,25,3,-1,-1
12,-3,18,-5,-17,-4,8,27
-4,-23,-40,60,-54,-14,-5,-17
-2,16,35,-128,10,-3,0,15
-7,0,-11,69,31,6,4,-11
-8,-20,-68,105,48,10,-10,22
14,8,-14,-88,8,3,6,-8
3,7,47,12,-21,-3,8,43
-24,-21,-24,-8,-28,-16,-31,-48
-9,-12,1,-10,-11,-3,-7,-42
-16,5,28,-9,-17,-7,8,-10
13,22,-1,-18,-13,-4,4,103
30,0,33,-13,1,-5,15,16
-13,-22,-53,9,40,15,12,-76
-10,-5,-54,2,8,-1,-14,20
-3,3,-29,-12,-10,-1,9,20
-14,4,-1,-11,-11,-8,4,-11
-20,2,2,2,-8,-5,-28,-58
9,1,-9,0,-2,-1,-18,4
19,-28,43,1,1,3,3,62
-5,0,-66,-15,-5,1,35,51
-18,-1,-4,-15,-23,-7,-10,-58
-9,-23,-41,46,-11,-4,6,80
10,25,57,23,19,1,-10,-38
5,24,9,-69,23,5,-21,-128
-4,-25,-9,14,13,5,0,-2
-6,-2,-30,-26,-26,-6,7,23
-4,19,40,28,-42,-12,1,16
6,-7,27,48,47,19,16,50
-8,-28,-112,8,48,1,-7,-6
1,1,-7,5,-39,-13,-10,-47
-15,-12,-9,14,4,-6,-9,-8
2,14,46,-41,-26,2,8,35
4,-3,4,-19,-36,-15,3,4
3,-10,-16,112,80,22,-10,-74
0,6,25,-60,-7,3,-1,-7
-2,-18,-34,-8,-19,-5,-2,7
1,8,7,9,-20,-7,0,6
-1,-2,49,4,-8,-6,1,5
-5,4,3,-25,-8,0,10,5
-7,5,13,33,-54,-15,17,61
7,-21,-41,62,97,15,-3,4
15,32,17,-29,11,6,-33,-89
-33,5,42,-29,-24,-7,-19,-37
-13,-27,-34,10,-22,-12,3,13
19,11,-2,13,-10,-1,12,36
-18,-40,6,-3,9,-5,-10,-16
1,8,18,-8,6,3,4,-2
-1,-3,-31,-1,-7,-4,4,6
2,5,6,-6,-10,-1,-1,7
0,15,19,-7,-9,-5,-2,5
4,12,0,10,-24,-2,-1,4
-17,-25,-92,14,3,1,2,-1
-6,25,127,-118,10,4,4,7
25,3,-15,16,-9,-1,0,57
17,-9,-8,-18,29,7,-2,-25
-31,-2,4,-9,13,9,-18,-107
-15,3,6,-15,-34,-5,-20,-14
2,13,23,4,-17,-13,-5,41
4,18,17,27,-23,-12,4,17
-5,-41,-112,100,-9,-4,1,8
5,1,0,-128,47,28,15,11
-4,2,9,52,10,-1,-3,0
3,6,13,-1,-41,-8,8,24
4,6,54,36,14,0,0,-12
-6,-6,-19,-28,38,8,1,-4
-6,-13,-1,-37,-17,-5,-4,-5
-7,-12,58,-13,-18,-7,-1,-3
0,2,-39,-1,-10,-3,-5,-3
2,7,47,-1,-6,-1,-2,-4
-2,4,-4,0,-2,0,0,-1
1,-1,-51,-1,2,-4,0,2
-4,0,31,0,3,1,-2,-4
-7,-1,10,-2,0,-4,4,8
-19,-2,-17,-2,1,0,-5,-31
7,4,-1,-14,-1,-2,-13,-6
29,-1,85,-6,-32,-15,-12,63
30,8,-2,9,22,3,19,-9
-57,14,-9,-26,-27,-13,-35,-128
-15,-71,-64,37,11,4,-5,-3
-11,2,46,-28,-8,-8,-3,-6
0,16,44,12,-22,-3,-3,13
6,9,2,39,41,16,7,18
-7,-38,-98,-55,1,-2,-4,7
0,-4,-128,-1,-4,-3,1,3
4,39,127,58,32,8,3,1
-9,-21,-7,-54,-16,1,-1,-5
7,7,-11,-1,12,7,4,-1
-1,-6,2,-33,-43,-11,-4,4
-3,12,6,36,-54,-15,7,8
4,-24,-80,53,68,17,-2,-25
-7,-19,36,-9,-11,-5,0,-6
-9,-4,21,-35,16,-1,-5,-36
0,17,-47,-25,-16,-6,0,8
-6,-31,-65,-13,-21,-12,-15,-7
-5,-8,1,1,-14,-12,2,11
5,28,109,3,-3,1,12,-2
1,-25,-72,12,-14,-2,5,57
-2,1,-39,-15,0,4,-11,-30
-7,8,79,14,9,-1,-9,-32
-14,-13,11,16,-4,-2,-11,-38
0,-58,-128,35,12,4,8,27
5,7,-17,-24,5,-5,-8,96
10,-3,3,-20,-8,-6,-15,-98
-3,15,21,19,-17,3,6,-41
-4,-4,-15,-15,1,-9,-22,17
-3,5,74,-17,-3,1,28,26
9,-10,-5,24,1,-5,14,26
3,-3,23,-14,-3,-1,-2,1
-6,8,-38,-13,-21,-4,-6,-2
-8,4,9,32,10,1,3,2
-8,-26,36,19,-1,-3,-24,-15
11,-2,-86,37,40,11,-12,25
4,-2,-56,-46,-35,-12,4,14
-15,-15,2,56,-75,-21,-7,-51
-8,0,-27,-17,52,2,-18,-38
22,9,14,-70,40,24,8,7
-9,2,66,10,-37,-17,-6,28
-9,2,-2,-64,-44,-13,-1,22
-3,-2,-23,34,-20,-9,-5,13
10,-1,-52,20,6,-3,-3,-51
4,-10,38,21,19,7,5,8
-20,-6,-39,5,-9,-6,2,6
-1,14,22,-31,-12,-4,-7,-7
-1,11,17,18,-21,-5,-2,0
8,-2,2,-6,13,3,0,4
-2,-7,36,-48,-21,-3,1,-14
1,-7,-123,21,6,0,6,20
0,6,50,43,9,-4,-4,42
14,8,63,-31,-2,-3,-10,60
-1,7,-14,2,-4,4,-2,-62
-22,-5,-16,-11,-12,-3,-9,-74
-7,20,32,-8,-18,0,16,21
-8,3,-46,18,17,-5,-31,-24
24,12,55,-45,12,2,6,9
-8,-24,-8,-1,-1,0,-2,-4
-9,-1,-22,11,7,1,-5,-12
21,-26,-32,-21,-14,-5,-1,10
-8,12,8,50,41,5,5,27
-2,11,9,6,6,3,3,4
2,-25,-65,7,-1,-2,3,3
10,8,15,-22,-12,-3,3,15
-1,0,2,-9,-29,-11,2,-14
-12,-2,-27,-43,-45,-14,6,-2
4,10,8,122,127,37,3,15
-10,-9,72,-96,-14,-5,-20,37
-7,-13,-5,66,-15,-6,1,-34
8,6,0,-45,-10,-5,3,-13
-2,2,5,-12,-23,-5,2,1
-4,5,12,51,-5,-6,4,46
13,-29,-84,-10,3,-6,8,83
-8,-3,50,-14,-7,-2,-11,-73
-8,49,34,16,-43,-7,-4,-50
-13,-41,-42,85,68,7,2,-9
25,-2,19,-93,20,12,14,43
-32,-7,15,-18,-25,-12,-29,-54
-11,7,-22,5,-25,-9,-19,-19
-4,-13,9,-2,-15,-9,-14,2
7,-4,-4,2,-2,2,-2,8
-2,-2,-9,-1,-10,0,28,7
5,3,1,-20,-3,2,7,16
5,11,22,6,-13,-5,-10,-5
-6,-28,-45,6,39,11,6,1
25,37,-36,-22,-11,1,27,127
-22,-48,94,26,-46,-20,-21,-57
-4,-28,-30,127,103,26,-9,-107
-6,4,14,-37,-4,3,-5,6
2,7,1,-45,-17,-7,-2,8
4,12,9,-6,-38,-8,-2,13
-6,-7,-2,7,-23,-13,-2,42
2,1,-10,-2,34,8,3,7
8,13,15,-35,-27,-6,-5,-43
-16,-4,5,54,-10,-3,-7,-5
-6,-6,-35,-35,27,5,-2,2
-4,-9,-12,58,9,2,2,3
0,6,6,-18,7,-5,-4,-3
-4,-18,-5,-21,-15,-4,1,-2
-7,-6,4,2,-7,1,-1,-11
-7,1,-16,-4,-21,-6,8,-4
7,2,-18,12,-21,-10,8,56
20,-3,49,25,7,-10,-29,1
21,-6,0,-33,12,3,-13,-45
-36,18,25,16,-20,-8,-16,-25
-13,-32,-36,-3,30,8,9,2
0,-5,0,4,13,3,6,8
2,-7,19,-32,-16,-3,-16,28
7,12,2,7,-16,-5,12,74
-14,-2,48,-8,-14,-7,20,-128
34,14,8,-4,-12,3,9,32
5,9,-128,7,23,4,-6,-2
-11,-16,65,11,20,4,-4,-21
-14,-35,25,5,16,2,-21,-22
-9,-4,-59,-32,-26,-8,-6,10
3,3,-2,31,-9,-9,0,15
-5,5,15,23,9,7,1,6
19,-5,3,-72,-39,-8,22,127
12,12,2,15,-37,-14,-17,-99
-8,0,-10,41,94,30,3,-79
-4,10,19,-53,-10,2,-5,23
-11,-4,19,68,-81,-20,-7,14
-1,-22,-69,42,51,5,0,12
-15,-8,-16,-14,6,2,3,16
5,-7,-7,4,-6,4,18,13
13,-5,-11,-6,-16,-4,-7,-12
-2,-6,11,-18,-30,-14,-42,-14
-9,9,-9,-4,-13,-9,4,-4
-4,-17,25,18,17,2,9,4
6,-2,6,-13,-14,-8,3,21
-9,1,-34,-7,7,2,-30,-64
-2,10,15,48,29,10,-1,-46
10,16,27,-2,7,-1,15,34
0,13,77,-7,-11,-8,-13,76
-10,-11,-20,71,-45,-18,10,-36
-32,-14,-16,12,82,24,7,-70
4,-27,-7,-16,10,4,-2,19
13,-8,-73,-27,-26,-14,-4,26
-5,8,100,-14,-23,-6,5,53
5,20,44,12,-24,-3,10,17
-6,-4,-28,2,22,3,-6,-62
-11,3,23,35,-10,-9,-20,-8
11,-9,-25,-29,-33,-12,1,51
7,38,57,106,54,13,-10,-74
0,-27,-6,19,95,28,9,-17
-24,-9,8,-60,-11,-5,5,25
2,-7,17,10,-19,-7,4,57
-22,18,10,-8,-43,-17,-41,-118
4,-29,0,20,1,-7,-28,-48
0,-10,-128,-69,56,19,4,4
-3,13,43,-28,-12,-4,1,13
-12,2,62,-14,-31,-11,3,6
-11,-15,14,30,-5,-4,-18,-5
17,11,-13,19,-3,2,14,45
4,3,-7,27,19,3,17,33
4,18,33,9,-34,-16,-6,-55
-6,-19,-55,6,59,15,3,-19
17,7,1,1,-8,-3,20,56
-12,-6,-17,-22,2,-5,-37,-106
-27,-19,78,3,-4,6,-18,-36
-6,2,-58,-48,-69,-17,26,48
-1,-11,-28,105,26,-7,-16,-18
5,20,17,-53,47,18,-21,-18
-3,9,-13,-20,-21,-14,2,-2
0,-15,9,4,-27,-11,5,10
-17,0,-23,-19,-9,-6,-8,-2
8,2,-20,9,-21,-7,8,13
-5,-56,-69,-24,4,7,24,24
-11,6,127,-34,-33,-12,-18,15
-12,-32,-128,37,16,6,-3,-10
3,32,60,-8,20,5,12,-12
40,-11,1,-15,-39,-10,1,28
-6,-3,40,48,-12,-11,-14,-44
-23,-29,-63,-70,50,20,9,49
23,12,-4,-14,-19,-1,19,119
-17,-3,-25,-15,-5,-4,-2,-72
-4,-17,-24,41,31,11,-5,-70
-19,-17,-21,-16,-12,-1,-1,-80
10,16,18,-14,-35,-3,45,48
20,8,55,2,-29,-14,7,126
-12,-4,32,91,19,-6,-34,4
-30,-13,-17,46,54,13,-20,-128
4,-9,-4,-70,-12,-6,3,34
7,-5,-24,2,8,2,9,50
-3,16,18,-11,-15,-6,4,24
20,-2,-12,26,-9,-5,19,32
18,-9,-51,0,3,0,6,25
-26,-1,49,-7,-22,-6,-10,-14
-9,8,39,-13,-36,-15,-16,-41
-1,-5,-51,72,18,5,-7,3
10,-15,4,6,35,11,7,-19
-4,8,28,-54,-9,-3,16,1
37,7,-28,-10,-14,-1,21,127
-6,-9,1,-2,-50,-19,-15,-70
-27,-14,37,107,39,8,-35,-120
-1,-11,-21,-95,73,16,-4,-15
-15,14,-11,11,-27,-4,3,5
2,0,-13,-20,-1,-7,-2,28
38,-27,-6,6,-18,2,14,9
-9,-31,-115,69,11,-3,-4,5
-1,28,65,-59,2,1,1,43
17,25,8,16,-11,-4,35,93
-36,-36,-83,-48,-30,-17,-59,-128
-4,27,2,-16,24,18,11,-72
-1,13,11,11,-7,-4,-9,-5
7,-10,14,-16,-12,-4,14,43
-2,13,-23,8,-16,-4,4,9
-7,-5,20,56,-7,3,7,14
-3,-47,-70,-72,23,3,-7,15
61,10,-41,4,-1,1,4,98
8,9,48,-27,-16,-4,22,77
-34,-22,-30,-40,-14,-2,-29,-128
4,-3,-42,49,4,5,3,39
35,9,34,17,-1,-8,11,48
-36,33,62,-36,-9,-8,-43,-111
-36,3,-35,77,-45,-10,-2,0
-24,-26,-22,-66,42,4,-7,-42
16,4,10,68,73,22,-7,17
12,-11,-27,-60,-14,-8,0,25
3,-15,14,-2,-22,-9,8,41
-13,0,-53,3,-15,-8,1,6
-2,29,30,-19,-41,-10,2,-10
32,6,-4,27,4,-7,-2,32
-1,-25,-17,55,59,14,-4,7
-9,-10,-49,-9,-3,2,2,-54
-10,-11,32,30,18,3,6,4
-18,10,-16,-16,-15,-3,-16,-48
-26,10,14,11,-29,-13,-9,-10
5,7,2,32,-26,-6,-7,5
5,-3,-15,28,16,0,-1,-5
-28,-13,5,-8,27,6,0,-3
27,17,-39,-30,0,2,39,127
81,20,95,-32,-63,-25,-33,-84
-99,-39,-57,-29,5,5,-26,-128
-11,2,4,12,61,24,-14,1
-20,-48,-128,-26,-29,-17,1,38
-1,3,29,-1,-25,-8,8,43
3,7,3,-3,-21,-9,3,29
3,14,50,17,-3,-1,0,16
1,-2,-44,5,-1,-1,0,5
9,8,6,-32,-10,-3,0,-1
-20,-28,-35,76,38,8,-7,-4
31,21,35,-5,33,3,30,63
8,0,-4,-16,1,8,-17,-67
-23,-52,-24,-11,-16,-4,-17,-58
-4,-3,-5,9,-18,-14,-41,-38
18,13,12,-15,-15,-2,23,58
-23,-10,-9,19,16,2,-12,-121
8,7,-6,-11,8,1,9,1
5,5,15,20,-69,-14,8,5
5,-7,12,61,-10,-7,19,102
10,31,61,-122,114,27,6,18
-20,-54,-47,-23,-16,-8,-37,-93
-14,-3,7,9,-23,-5,-17,-89
-16,-1,0,-2,-28,-8,4,15
6,6,4,9,-26,-9,7,27
4,-13,-35,71,-4,-8,1,19
5,-1,-21,-59,19,5,4,13
7,7,8,-25,7,3,4,10
-5,19,59,-9,-57,-16,-3,-3
-24,-33,-82,42,-16,-10,-2,-7
-12,0,13,-33,20,8,7,-8
40,12,52,4,72,23,17,2
14,-22,-64,27,-24,-8,-11,16
-20,-35,56,-24,-15,-10,-52,-55
-11,-30,-26,-34,-22,-6,-3,62
-8,16,34,30,-9,-5,7,-27
-2,7,2,10,-2,-13,-21,-66
15,10,-13,-2,-2,5,6,-18
-6,21,-4,-7,-3,-1,-17,-2
-35,5,3,-1,1,1,-5,-51
-12,9,6,4,2,-2,-19,-9
-8,6,74,-2,0,3,40,50
112,-19,93,-3,-3,-1,95,127
-47,-67,-91,-13,-7,-16,-114,-128
-78,55,121,13,-27,-13,-58,-115
-8,-36,9,33,4,-4,4,17
6,7,-4,104,3,1,10,50
8,-8,-15,-72,42,12,15,56
8,7,-7,14,-40,-13,-2,35
12,4,-15,-40,56,19,8,26
2,4,15,127,-105,-32,-8,5
4,16,94,-102,85,26,8,6
-9,-61,-128,-69,39,16,8,14
-8,8,77,-57,-67,-22,-11,-7
3,3,5,-106,-31,-12,-11,-25
21,-6,-68,127,45,10,3,-2
-16,-8,-2,-74,7,3,1,-25
-8,2,-12,-14,-27,-6,1,-11
-1,-2,-6,-47,-24,-8,-6,0
-3,4,12,8,-2,-9,-3,-10
-5,-4,14,-9,-12,-2,14,21
6,-3,-10,94,5,-1,3,26
-5,9,5,-41,34,2,-13,84
-4,10,-23,-16,5,0,-8,-42
6,22,50,2,-10,3,0,-84
-7,-20,25,6,11,3,-10,-24
-9,-38,-36,-21,-17,-8,0,-27
-16,16,-9,31,3,0,4,32
-7,-3,5,29,18,2,-7,76
19,45,19,4,60,12,31,-26
20,-7,-64,-79,-52,-12,-6,-31
-15,3,63,-43,-24,-7,-5,-16
-12,12,1,-26,-13,-8,-8,12
-1,6,28,85,21,0,-3,54
11,3,11,-57,32,18,22,55
-10,-9,-6,13,-30,-9,2,103
-6,-3,-30,40,59,9,-40,-87
-31,-14,-48,-59,-31,-15,-31,-128
4,-20,-19,118,-48,-11,-7,25
0,-12,31,-4,14,0,12,42
7,10,9,-100,23,5,11,37
22,9,16,19,13,7,6,22
-3,16,12,0,-23,-11,-2,4
-22,-3,-11,-1,-10,-5,-2,-6
-17,6,19,-3,-27,-8,-8,-19
74,22,21,31,51,18,9,24
4,-27,-51,3,-3,3,7,-3
-36,-18,36,-5,-11,-6,-20,-31
1,5,3,-2,-11,-4,-9,-2
-3,2,58,17,10,1,-1,9
3,10,0,-10,-8,-8,-1,-35
-9,1,2,-5,-10,-5,-18,-39
-6,-1,2,26,-11,-2,25,9
11,6,-6,34,37,15,37,109
12,-2,12,-44,-8,2,-8,-41
-30,-13,-42,1,-14,-10,-29,-128
-8,-1,0,11,1,-2,-20,44
1,-14,9,12,-16,-4,2,11
1,0,-9,-83,-22,-12,5,20
-9,3,4,82,-33,-5,7,10
-8,-4,-13,72,115,26,6,0
7,8,-5,-40,0,1,-3,5
24,-1,5,-42,-38,-11,-6,5
-5,-4,-5,101,-36,-8,-1,0
-1,-17,-15,12,61,14,7,11
-5,25,72,-32,-12,-2,4,-8
-4,6,-47,-40,-25,-5,-3,-3
-7,-38,-1,46,7,3,2,2
5,13,56,-41,2,-1,-6,16
9,-21,-40,36,12,2,-7,-53
0,16,17,15,-23,-6,-2,7
0,-5,8,-67,-4,-4,9,2
-6,-14,-13,27,19,2,13,41
-4,4,-29,-13,-15,-9,-16,-10
-13,-4,94,42,-6,-8,-19,-59
1,2,-43,2,-1,3,6,12
-3,3,-3,-1,9,1,11,19
8,-18,-32,-11,-5,-5,-13,4
-3,-4,-34,0,-3,0,-2,14
4,12,14,1,0,1,2,4
-5,27,16,-1,-8,-5,6,4
11,8,12,10,-5,-2,6,-22
-19,-1,89,-23,-26,-9,-8,-29
1,-25,-62,0,21,-2,-31,24
16,-9,2,67,-12,-11,-41,35
-8,18,-31,-55,42,17,37,-32
-4,-7,-31,-17,5,2,28,-5
17,8,20,-15,-21,-6,1,13
-5,9,-13,26,-33,-12,-21,-29
6,6,24,63,4,-5,-24,-6
-7,12,-9,-35,-35,-1,-4,-20
-20,-42,-114,32,17,-5,9,33
-13,-36,-21,-39,23,0,-16,-89
1,32,27,-89,-11,0,-2,-6
-2,-16,12,22,17,6,4,10
10,2,21,59,3,-4,9,61
35,-13,-57,28,-2,-7,-3,-2
-15,-25,-9,3,3,-1,-2,-59
-19,11,31,-14,-15,-11,-13,-22
3,-12,-31,-13,-11,0,13,19
30,14,-18,-8,-2,-1,22,127
-46,-1,-10,-36,-24,-14,-65,-128
-6,27,41,31,10,11,0,2
17,-46,-26,1,17,7,-1,33
-10,5,11,0,-7,-4,5,44
5,6,47,-11,-10,-15,-6,2
14,17,-94,0,-4,5,24,44
-17,21,96,-31,-22,-7,-12,-29
-11,-10,35,16,34,12,1,-96
-9,-2,3,-16,-39,-10,-25,1
-1,-15,4,-24,-41,-14,10,44
11,-7,-7,-36,102,28,30,-1
-1,-4,-26,-33,-19,-7,-11,2
-10,6,23,61,-31,-10,-10,-10
2,16,23,-18,-17,-11,2,17
-10,10,2,97,74,10,-28,-59
3,-19,10,-128,38,15,1,26
8,8,-18,-32,-19,-1,17,56
-11,7,15,5,-46,-10,-13,-63
-1,2,18,8,-65,-17,-2,-14
10,0,-11,29,62,18,15,43
0,-39,-41,14,82,17,0,-36
10,17,7,-13,-18,-3,4,8
-38,-4,16,-4,-27,-10,-8,37
11,2,3,0,-27,-9,2,-42
1,10,5,-24,-7,-2,0,-9
5,-22,-9,27,8,5,24,99
15,-9,-11,3,2,-5,6,-36
-14,8,-3,-3,0,0,-36,27
-11,9,-32,-5,-3,-4,50,15
0,-22,25,-11,0,-3,-47,-67
15,-16,38,-8,-8,0,-14,-36
-13,-3,-38,89,8,2,-1,12
-1,24,7,-53,7,7,6,30
-8,3,5,-11,-21,-12,-2,12
-4,-45,-20,-18,3,1,6,-6
-11,16,9,19,-19,-5,-16,-7
-7,-16,-46,-71,64,21,8,-70
0,10,8,43,-18,-7,1,15
10,4,-9,35,-18,-11,-1,43
14,-1,12,29,1,-11,-3,127
-33,2,-25,78,42,10,-19,-128
1,-12,4,-89,-18,0,-28,-77
-2,-22,0,-35,-39,-13,1,65
2,3,-13,14,-27,-9,11,21
-13,10,6,-45,16,7,0,-28
-4,-10,6,3,-11,-3,0,8
-3,-5,5,21,0,-3,-2,7
6,24,40,-29,-12,-8,-2,14
-3,3,19,-9,-12,-5,-1,15
14,-33,-88,15,8,4,19,27
17,7,14,-7,-3,2,0,56
-34,-12,-9,11,2,4,-20,-80
-13,4,8,-27,-5,-5,-11,6
7,17,7,-9,-7,-5,-16,-43
12,0,-45,-5,12,7,-4,35
-5,-26,39,43,-6,-2,45,-50
-15,-4,11,-4,6,-1,-8,-42
0,11,-3,39,20,4,1,20
4,12,0,-57,-13,1,4,22
17,-7,-24,0,1,-2,-4,42
-11,-15,-4,-2,-3,3,-1,14
-3,2,17,12,-8,-2,-8,1
1,10,-22,80,-35,-10,1,-3
-5,5,47,-54,59,16,16,20
-13,-2,41,-108,-30,-14,-12,-37
0,-13,-128,24,2,-2,-17,-37
-19,15,92,21,-8,-2,2,33
-4,-29,-69,60,-8,1,14,-4
-3,2,-68,-11,21,2,-4,-11
3,-23,44,-85,-30,-12,-9,-10
-2,13,17,47,-34,-10,-1,5
23,-7,-28,119,126,23,21,74
-13,17,31,-13,-5,4,-9,-39
-6,17,30,-62,-32,-6,-9,-61
-4,-38,-27,55,7,-6,-13,-88
9,-7,-6,-4,3,9,18,26
-16,-7,-19,27,-4,-8,-13,17
-5,-5,-19,-25,-9,-6,-13,1
-5,7,24,-6,-5,-2,5,-19
7,0,20,-1,-4,-5,-13,39
-6,-14,-45,0,3,0,5,1
-2,5,0,-5,2,3,13,11
3,-10,-21,2,-1,0,-19,-2
3,22,64,5,-4,1,31,16
5,-11,-49,6,-14,-7,1,32
-13,-30,20,-8,8,-3,-12,-57
-10,7,18,-4,-4,-3,-24,-45
5,13,13,-5,-2,3,6,31
12,-5,-53,4,-60,-15,19,82
-28,-4,53,106,52,1,-51,-128
-3,21,16,-71,42,14,-8,-29
-16,4,18,-25,-38,-10,-1,-81
-18,-13,-56,100,80,22,11,5
12,-13,-6,-39,-13,-2,-6,12
30,-4,-3,-33,-38,-10,6,41
-6,6,10,26,-64,-21,-8,22
-12,-7,-33,85,32,3,2,-2
2,7,12,-6,36,13,3,-14
10,6,99,-38,-34,-7,13,26
-6,-5,-102,9,21,1,1,-27
-6,-2,14,39,-42,-19,-26,-7
3,2,-37,-55,21,1,3,-11
-15,-16,61,-19,5,8,12,3
1,5,13,4,-9,-4,-1,-1
2,14,7,3,-9,1,6,3
-5,-15,19,-1,-7,-1,9,-4
-13,-28,-51,-1,-2,1,6,10
-1,21,12,8,-4,-3,-30,-11
23,-1,16,-9,-10,-10,-9,0
17,4,4,1,8,4,3,8
-2,8,6,3,-1,0,4,0
-16,-30,-18,-11,-12,-4,-20,-12
-10,-2,-25,-17,-5,-2,18,-1
-1,10,46,11,-20,-4,4,-1
-2,1,-35,-81,5,8,1,1
4,5,-11,127,25,8,-1,-15
7,3,28,12,38,9,29,30
-9,-56,-128,-128,-3,-1,-29,34
8,16,41,10,-10,-6,-16,-18
8,17,-11,-32,4,2,2,-68
4,2,60,66,-39,-12,-1,11
-9,7,-53,-68,-13,-2,13,62
-33,-21,-31,-3,19,1,-32,-29
12,-1,7,-100,28,13,2,-5
-3,6,5,8,-33,-12,0,6
-1,0,10,11,-54,-20,0,73
12,-3,-7,63,62,18,12,-8
11,-2,-19,-53,-27,-13,-4,-16
-9,10,0,15,12,-4,-9,-31
-1,5,-38,4,-3,1,-23,21
7,-7,11,-3,-8,1,30,7
-2,-1,58,-8,-7,-2,-2,14
1,6,25,0,-4,-3,-1,-47
-1,8,3,-1,-1,-3,-3,8
-12,4,31,0,3,-1,33,123
9,10,-20,4,5,3,9,7
-11,0,-12,-6,-4,-3,-31,-113
32,-6,-19,25,-1,-2,4,46
-6,-1,41,-13,2,-6,-11,-2
-12,0,-22,3,-1,4,0,-30
1,7,29,1,8,6,10,12
1,16,16,3,3,-2,-13,17
-9,-8,7,-8,-22,-7,2,4
9,-7,-15,-41,-29,-8,14,76
-2,-32,-95,115,-6,-3,-10,-15
10,3,39,-121,75,26,-13,-51
-14,-32,-14,40,-7,-5,-22,-50
-14,1,-47,-1,-6,-3,2,6
-3,2,21,-13,-23,-5,3,11
-1,4,17,-6,-50,-14,-2,6
-5,-8,-3,-16,-5,-8,-4,5
8,-6,-9,59,46,17,5,7
-1,6,-12,-25,-15,-2,0,-2
-6,1,15,-5,3,-2,-4,-2
-13,-8,17,-9,-12,-4,-2,-6
15,19,4,6,-7,-7,2,-4
24,2,7,6,-8,-7,6,103
-7,-18,-18,-9,2,1,-12,-33
-27,-34,-15,-13,-9,-1,-6,-93
1,-1,4,11,3,-2,-4,8
-7,3,-10,0,-3,-8,-3,-8
11,6,-8,-1,-5,-3,-13,26
0,17,60,30,-9,-5,9,2
3,-8,-19,10,-6,4,-3,-23
-14,-22,-44,-28,15,-5,-12,-3
19,20,17,9,5,0,6,43
-8,-4,12,0,-12,-8,-8,-18
-12,-11,3,0,-12,-3,-7,-15
6,2,12,-83,-85,-14,6,12
-7,-18,-32,48,-13,-11,-9,1
21,11,-20,-11,86,35,13,11
-20,-13,50,-26,-20,-9,-5,-10
-11,-21,6,-18,-35,-9,2,-3
1,21,31,8,-19,-1,12,3
0,22,18,-46,-10,-5,-13,-9
5,-16,-80,27,24,9,4,3
3,-3,13,4,-1,-2,4,-4
-1,2,3,-5,-7,-2,-2,-1
1,3,-1,2,-9,-3,1,-1
-4,-5,3,25,-53,-19,-7,-19
-5,-15,7,-64,24,-1,5,54
2,12,3,80,53,20,12,33
-11,7,-20,-11,34,10,14,18
8,7,20,-20,-4,-7,-17,-40
6,-35,-22,-15,-21,-10,-8,-117
-19,-15,13,-9,-25,-14,-15,0
-11,-5,-4,26,-4,-4,-2,8
-5,15,-8,-6,-8,-4,-6,18
-2,9,11,-3,-7,-4,5,14
-3,4,2,-1,-6,-1,9,12
1,8,-12,-39,-31,-10,-7,-13
-4,-12,-16,44,-32,-15,-2,-2
20,-4,-39,-12,108,27,12,26
0,8,15,-27,9,10,0,12
5,4,-13,1,-19,-5,-19,-4
-8,-2,-9,-10,-20,-5,32,-8
-2,-5,33,21,-12,-6,-7,-7
-1,-18,2,-28,-20,-6,12,64
-3,-4,3,22,22,2,8,-21
1,20,-3,-31,3,0,-36,-52
-19,9,5,-15,-10,-5,-17,61
10,13,4,-59,-67,-12,21,40
31,-19,-15,127,79,14,-25,-71
-16,-12,14,23,86,16,-8,-47
-28,1,34,-28,-20,-9,-18,-40
-2,10,-50,-7,-28,-9,5,11
3,-1,19,-11,-16,-3,10,36
-1,-7,-8,-14,-18,-4,3,26
3,3,-1,32,-9,-1,-4,14
1,1,3,-17,3,-5,1,9
0,1,-5,-32,-8,1,-1,8
-7,8,15,-77,-63,-18,-11,-5
-9,-16,6,95,-4,-2,-11,-10
23,17,-66,0,114,34,33,76
-5,7,127,-36,1,-2,-4,-26
-8,3,-14,-24,-28,-2,-8,-66
-10,-32,-28,-28,-35,-12,-13,-15
-9,-51,-90,8,-19,-9,-11,-24
4,54,104,-14,-1,0,-11,0
-4,-1,-6,-64,10,2,4,7
-18,-7,3,-9,-55,-18,-4,-8
10,5,-22,127,25,8,33,85
20,-6,71,-53,68,22,-2,-38
-20,-7,-18,-12,-10,-8,-37,-51
4,8,-14,4,-20,-5,10,-4
0,-10,43,-8,-17,-4,15,25
-5,-9,1,-6,-9,-6,-8,29
-7,-15,-12,-11,-11,-4,6,-33
8,23,-22,5,-4,1,-1,-4
-3,3,65,20,0,-3,-7,-1
-9,2,-58,47,3,0,-4,-1
-1,-18,-37,-40,6,4,6,25
-6,5,41,-24,-2,-1,0,-6
-6,1,32,2,0,-1,-6,-8
-10,-5,-36,0,-6,-4,1,-27
15,-6,10,-14,-20,-10,0,127
15,14,-15,4,-13,-4,14,-30
9,12,45,-13,17,8,23,-88
-23,-9,-6,7,9,2,-15,-4
-2,0,20,-30,-8,-3,-2,18
0,-8,-67,-34,-16,-4,5,23
-3,-7,19,49,-10,-6,1,12
13,3,-18,-119,-32,-6,-3,8
-7,3,24,96,-8,-5,-2,-5
8,17,5,3,112,41,12,-1
-2,8,30,-81,-30,-10,-5,0
5,-15,-16,-21,-23,-8,1,13
-11,-2,-4,12,-14,-8,-1,-8
6,9,20,42,-17,-6,-6,-5
25,9,4,-71,4,-1,2,-4
-5,5,-6,17,3,-2,2,3
-17,-22,3,-6,-3,-2,-4,-13
14,15,10,6,6,4,1,20
-1,2,-9,3,-5,-6,-2,-1
18,4,-36,0,-3,-2,-3,36
-3,-10,-13,-1,-3,-3,14,10
-41,-27,3,-3,-4,2,-2,-48
1,13,11,7,-3,-4,-22,-27
5,8,12,4,2,-4,-10,7
5,3,-7,24,6,5,34,21
-1,-15,-63,-36,-21,-5,5,10
-7,15,6,19,-4,-6,0,22
35,3,-6,42,23,6,9,103
-12,-9,0,-30,-5,-1,-16,-50
-9,34,50,14,-50,-12,-8,-69
-15,-45,-93,-11,0,1,-7,-22
2,-2,26,15,85,22,-7,-13
7,10,2,9,-40,-7,7,55
-3,-29,-13,-109,-46,-20,-7,38
3,14,69,10,16,7,-7,-54
1,25,39,58,15,8,2,-32
-24,-19,-4,-60,-6,-3,3,4
5,-5,-14,9,4,3,5,21
4,8,20,-15,-32,-10,-1,11
0,-4,4,52,6,-3,8,22
2,-8,-2,-1,-17,-8,-17,-12
-2,0,-23,-20,32,9,-3,-5
-4,0,14,6,-3,0,-1,-1
2,6,19,9,0,0,2,4
-9,-26,-22,-6,-13,-6,2,-10
9,2,14,4,-1,2,2,61
-6,-4,-7,-2,-5,-7,-17,10
-19,11,6,2,1,-4,-25,-128
3,12,-9,20,1,0,-25,-19
-4,-8,48,-11,-1,7,25,6
-11,-12,-26,2,-9,-6,40,47
20,5,11,22,-2,-5,-20,21
16,18,21,-66,9,7,-2,-16
20,13,38,0,-8,-1,-13,11
-32,-2,-2,21,16,-1,-4,4
-1,-5,-2,28,-1,1,1,4
-4,-15,-12,-6,-11,-5,-4,-3
0,1,-6,-9,-7,2,2,1
2,7,8,-108,-51,-16,0,-1
-9,-1,1,85,-91,-23,-8,-12
6,25,-16,4,127,51,20,-7
-14,-35,20,-67,12,3,-12,52
12,-8,-27,-33,-36,-9,-3,127
13,-3,48,-15,-32,-11,6,-110
-16,-16,-6,7,-14,-1,5,-100
-3,3,-9,7,-5,-8,-12,26
-3,4,-1,2,-1,-4,-18,12
-8,0,-4,-1,-4,-2,1,13
-5,0,-2,-2,-1,-2,3,13
-4,0,0,-1,-2,-3,6,8
0,5,10,-43,-54,-11,0,5
-5,-9,-20,127,44,-2,-1,-3
14,19,10,-22,108,32,13,7
4,-25,-120,-61,-17,-8,-11,-9
-14,-24,85,-8,-22,-10,-23,-15
-23,-4,24,7,-13,0,47,2
10,1,-7,18,-6,-1,-1,-1
2,16,44,-1,-13,-9,-22,1
23,-2,2,-23,-9,-6,2,41
-9,15,-9,3,-12,-1,10,35
12,-11,-16,36,-12,-5,-11,16
2,14,26,4,30,-2,-23,-94
-34,-35,-50,-3,1,5,-17,-71
-1,6,-13,-7,-12,-4,5,16
1,3,7,-2,-7,-3,10,38
9,12,9,-46,-22,-10,0,3
2,8,31,58,-32,-8,-2,-7
4,-22,-91,76,71,18,7,8
7,23,36,-43,31,12,5,10
3,9,-4,-9,-11,-3,1,6
-1,-2,0,-28,-13,-3,1,4
-1,2,9,-62,-63,-19,-5,-6
-5,1,-14,-15,-22,-13,-11,-9
15,-1,-8,122,91,28,13,9
1,-1,-5,-28,-15,-1,1,-3
-11,-27,11,9,-41,-11,-2,-10
-9,-11,15,-33,-12,-4,-5,11
1,3,-12,-17,3,-7,-3,-30
13,20,5,3,-8,0,3,62
-2,5,-20,4,-15,-3,-3,-12
-10,14,38,-14,-27,-15,-28,-64
13,-39,-114,29,-2,2,21,-5
-23,-11,-2,16,55,10,3,78
8,34,42,-40,-9,-3,1,14
-15,-17,41,-21,-32,-10,-8,-71
-3,4,-26,82,27,4,1,10
2,6,62,-28,5,3,6,66
9,3,-27,0,-10,-3,-6,-22
3,5,-16,1,-5,-3,-8,-13
-3,0,-4,3,-4,-2,2,3
1,-5,-23,-10,-7,-4,1,5
-12,12,114,-35,-27,-8,4,4
-3,-15,-48,5,-4,-11,5,5
6,-49,-53,61,42,5,-3,2
23,17,0,-27,0,3,-12,-17
-14,0,11,-20,-24,-6,-7,-12
-12,-1,6,-31,-7,-5,1,27
3,-7,-2,85,-16,-2,7,-8
-3,11,14,-33,54,18,-9,2
3,0,-28,-40,-7,-5,-2,-9
-2,-1,-20,-34,-28,-12,-5,-2
-8,-27,7,-26,-33,-10,-3,-1
-2,-2,-25,-13,26,6,3,2
10,16,7,28,8,-2,4,4
11,-6,0,-4,-34,-6,5,31
-14,-4,-17,42,68,14,-25,-14
-7,-2,-3,18,3,-3,-2,-10
-9,-5,6,-18,-26,-8,11,1
-6,-11,-16,-29,-6,-4,-2,-3
-1,29,24,25,6,2,2,3
-4,6,15,-9,-10,-9,-16,-10
-2,-15,16,-31,-22,-8,-11,-4
-2,13,23,7,-16,-1,13,6
22,4,-86,23,42,13,7,5
9,6,18,-4,-6,-6,-12,46
-1,4,0,-12,-7,-4,0,30
3,-3,6,-6,-8,-3,7,-18
-46,-13,-5,-16,-17,-11,-29,-128
-6,30,40,0,9,5,-4,-6
5,6,-27,41,12,4,-6,12
2,-26,43,-38,5,2,1,21
-4,-16,-31,-15,-11,1,33,26
2,9,7,19,-32,-21,-28,-3
3,7,-44,-1,-58,-18,-5,1
6,-10,-18,-58,52,17,10,2
0,-14,21,98,107,27,11,20
-5,-16,-3,0,-25,-4,-2,-20
-5,1,-1,-16,-30,-12,-5,45
-3,-3,-13,-18,-6,-1,10,-10
-2,8,31,19,7,3,5,-37
-6,26,32,-11,-15,-1,-24,-29
-17,-13,-65,15,6,-5,-12,-10
6,-43,6,-69,0,-7,5,18
23,12,37,-14,-12,0,1,9
16,7,5,-1,-9,-7,1,80
-18,2,-6,36,-1,-2,-7,-81
-27,7,8,-4,-2,1,12,-7
-5,5,1,22,22,5,-2,-10
15,1,-18,-11,-11,-6,2,32
-20,-19,1,12,0,-1,0,-15
-10,-21,-63,-17,-4,1,-25,36
10,17,24,-7,-4,1,-1,2
-17,-1,46,-19,-32,-20,-38,-128
-6,-28,-47,43,1,-4,14,-2
-2,-17,-18,22,29,6,11,30
-1,-7,4,-19,-6,1,-1,-3
2,17,32,19,4,-6,6,31
1,5,-53,-79,-54,-10,-4,-5
-17,-24,-58,101,16,-6,-14,-19
11,9,31,-46,81,31,4,6
10,16,31,-21,-18,-7,-10,15
6,-6,-5,9,-20,-11,15,2
-8,5,-24,11,-44,-11,-5,-4
-10,22,12,-12,27,7,-1,0
-11,-37,-65,-33,14,0,1,-4
-7,-16,-20,-2,-2,2,-4,-6
0,5,6,21,-15,-5,-4,-8
6,-9,-14,-8,-5,3,0,-15
-20,19,20,-2,0,-4,0,12
18,18,8,-18,-21,-9,7,10
-1,9,0,33,-9,-13,-17,59
-16,-42,25,40,26,8,-7,-87
-14,-8,-16,-36,5,3,-6,-53
-1,-2,-11,-13,-10,-9,-16,39
2,4,43,-2,-6,-2,-1,-35
-6,-2,-19,-1,-3,-1,-11,-29
4,10,50,-13,-15,-9,-14,6
1,15,9,-14,-21,-8,45,25
-4,-9,-6,65,-7,-2,8,23
-14,-7,-8,-48,54,18,-4,10
0,-2,-60,-37,-1,0,-4,-1
11,-12,-10,-14,-28,-9,-10,-3
-2,-10,-3,-33,-31,-12,-10,-6
2,4,13,46,36,12,8,-10
2,4,8,2,-9,-4,-5,1
-3,2,41,-9,-51,-17,1,98
-32,-27,-8,18,-3,-8,-8,-36
3,11,-30,-28,38,19,17,-68
-6,5,80,-5,-10,-6,-13,-22
4,16,33,-38,-7,1,-7,-9
2,-6,-16,-6,-18,-6,-5,13
0,1,1,4,-10,-6,-1,8
0,-9,-11,-1,-5,-3,4,11
0,-2,-16,-12,-7,0,-2,4
-21,-10,1,-5,-20,-4,11,3
-8,60,110,51,-4,-9,-1,-16
56,-36,-97,-49,48,12,-25,21
0,-45,-68,13,-16,-8,-5,4
-25,-11,17,-37,-10,-7,-20,-2
-8,11,25,2,-7,-4,3,-4
-2,9,15,-3,-6,0,4,-4
-1,9,10,5,-1,-4,1,-1
2,3,3,5,0,-2,2,-2
13,4,-4,-40,-36,-9,3,96
-5,-12,-21,110,31,2,-21,-26
-23,5,7,-36,34,14,11,-128
-8,-12,5,-9,0,-5,0,1
3,-1,-36,-5,-9,-4,1,19
3,9,12,-9,-11,-3,-5,48
-4,-7,-3,9,-12,-1,11,21
2,-3,-7,-39,-16,0,-9,-57
-2,-3,0,11,-13,-8,-15,-26
-2,-40,-108,37,20,0,-8,9
1,13,50,-28,-12,-7,-2,9
-1,8,8,54,36,13,11,19
-1,1,8,-47,-13,-3,-2,1
0,-23,-107,39,14,3,3,2
-11,-1,-24,46,-18,-7,-1,-4
-19,-9,57,-20,-21,-6,10,-8
28,21,43,-100,19,5,5,20
30,19,-12,18,-15,-3,-13,63
-36,-23,-4,43,23,0,-10,-51
-27,14,30,-5,-7,-5,-3,-69
-4,-4,8,-1,-11,-2,0,-2
2,-2,-36,-8,-28,-13,-5,34
10,12,36,44,42,9,12,19
-3,-28,-27,2,-8,-2,3,-25
-2,7,-1,-4,-10,-4,-17,-17
2,5,64,-7,-6,0,-1,6
-14,-1,-56,-11,-6,-6,0,8
6,-10,-13,-1,-4,-2,0,6
-1,4,3,-1,5,-3,-10,-10
-2,0,-12,-12,-6,-4,-4,-6
-3,-2,9,16,6,3,-2,0
-1,12,-10,4,4,-1,-10,-1
8,3,31,-17,-22,-5,-3,-5
7,-12,5,0,-19,-2,32,5
1,13,76,14,4,1,-2,-13
5,-36,-99,-47,60,22,11,5
-26,-2,7,-13,-20,-8,-1,65
-2,9,1,7,-37,-10,-10,-17
7,10,3,-27,6,4,-14,-16
5,7,-5,6,-11,-2,24,-5
-7,1,63,-27,-37,-4,-7,2
-7,-20,-61,13,40,8,0,-9
2,4,14,12,29,8,8,31
10,15,26,26,-14,-5,5,24
14,18,-22,-19,-15,-3,-8,-84
-15,-27,-7,-28,-17,-7,-16,-42
13,-8,-14,-39,-13,0,-2,44
-14,2,21,91,-5,-5,-5,-47
-15,-9,-68,2,2,-1,-4,-38
5,-5,-18,-32,67,13,-5,8
19,-20,-93,14,3,0,18,77
2,-3,-1,3,-12,-4,3,7
-17,1,30,5,-11,-5,-9,4
-7,6,21,2,-6,-4,-17,-43
0,-10,-4,1,-4,-1,23,0
-3,4,-34,-2,-2,-2,0,4
2,2,-17,1,1,-2,6,11
7,-2,6,2,-1,-2,1,12
8,3,26,2,1,-2,-7,2
-2,-22,-18,-19,-5,-7,-16,-9
-8,-4,-61,-17,-26,-9,-9,-11
-6,19,76,89,31,8,4,-4
-2,-18,-92,-23,13,4,0,3
0,0,29,-16,-12,-2,-1,1
-1,-2,24,-24,-15,-4,2,-2
0,5,-7,-37,-23,-8,1,4
-1,-3,-35,43,3,-4,-10,-2
-1,4,32,21,18,0,-18,-32
-4,1,-7,-10,42,18,6,-11
-4,-2,5,-33,-28,-13,0,1
-1,0,-43,-2,18,4,-2,-2
5,3,28,51,23,9,3,-12
-1,-3,10,-4,-15,-5,-1,32
-1,-3,-38,-5,-12,-1,3,5
-1,-12,9,-1,-14,-10,0,0
0,-7,-56,-18,-12,-8,-6,26
-5,14,40,-5,-8,0,-13,27
-6,-1,2,-41,-25,-5,42,-20
12,-5,-42,61,38,-2,-45,-94
-30,13,1,-24,12,-1,-22,-114
-1,-13,-11,-11,-10,-1,-2,-17
-1,-22,-21,-7,-8,-1,1,33
4,14,-6,-28,-25,0,7,41
-2,10,-21,15,-1,-9,1,28
-4,-19,69,7,26,8,5,13
-3,4,-29,-4,-4,3,2,10
0,-18,-33,-6,-8,-1,9,2
-10,11,82,-6,-5,-3,6,-10
8,5,0,11,-12,-3,-13,11
18,6,-5,-42,12,4,-14,-21
2,25,78,27,2,3,3,-1
-28,-25,-8,-2,8,0,3,-3
-4,-15,-56,11,-15,-7,-4,-4
1,1,-6,31,-3,-5,0,-2
-3,31,36,55,10,0,-5,-4
2,-5,-8,-61,-48,-10,-2,-3
0,-33,-46,98,99,17,1,0
6,-5,5,-78,27,9,5,1
-4,4,4,-16,-31,-10,-6,-2
0,10,35,-16,-29,-12,-6,-3
1,19,-20,-2,-28,-12,-7,-8
-2,-45,-78,38,2,-2,-3,-4
6,15,36,2,7,-2,0,4
-2,8,-15,-11,0,-4,0,4
-7,-11,32,2,-5,-1,10,7
-1,9,18,5,10,3,-16,-21
-4,8,-10,-15,-6,0,14,-15
-3,-9,-13,7,0,-3,-7,5
6,-6,3,12,0,0,0,33
8,-3,-17,-5,-8,-5,5,18
1,-4,-11,-13,1,1,-13,-45
14,18,1,4,3,-1,-10,-30
-16,3,-4,0,-5,0,29,-63
12,-6,-49,25,-7,2,-1,13
-16,7,40,-39,-44,-19,-17,-20
-1,5,-30,-23,10,4,-1,7
7,22,-11,33,59,8,4,34
-11,-29,8,18,-25,-5,8,8
7,7,7,101,44,12,9,-16
-2,6,-36,-72,-23,-6,-8,20
-5,-32,28,-38,-29,-19,-19,5
-10,-6,2,-13,0,-3,-8,-12
-5,9,-24,-14,-24,-11,-1,-19
3,-11,1,73,-17,1,3,8
6,2,-23,-65,-23,-5,2,13
1,-1,26,13,37,5,16,66
12,-6,-14,-32,41,16,-11,-27
-2,3,17,-4,-23,-5,-10,-69
-2,14,12,2,-24,-9,-3,2
-7,-17,-54,-7,-23,-7,-1,13
-4,-2,30,-7,-14,-9,2,8
0,0,2,4,-5,-1,5,11
2,8,2,3,-1,-2,-9,-11
-9,-8,19,0,-2,-3,-3,21
-3,2,-21,-3,12,4,47,4
6,25,25,4,3,-3,-19,-32
0,-21,-27,-4,2,0,-16,-19
0,-12,12,-4,-4,0,13,32
-1,4,-15,-2,-4,0,3,12
-14,0,2,-11,-3,3,-5,-21
2,8,19,1,-9,1,4,115
25,10,7,18,1,-2,18,-71
-7,-5,-24,37,31,6,-17,-97
-3,-7,2,-19,-5,-6,3,6
-7,-1,21,-5,-31,-15,-5,19
-16,15,38,55,-22,-5,0,17
2,-8,-55,-51,71,14,9,19
6,-7,14,8,-1,1,10,27
-6,-3,-48,31,-13,-7,15,8
-12,11,67,-21,-22,-2,-24,-56
-6,-3,-48,31,-13,-7,15,8
-12,11,67,-21,-22,-2,-24,-56
12,3,-21,40,4,-6,-39,-6
27,-19,-40,49,112,33,56,61
