Channel_1,Channel_2,Channel_3,Channel_4,Channel_5,Channel_6,Channel_7,Channel_8
-15,2,21,-7,0,-2,22,31
26,47,5,-1,-5,-6,-19,-12
52,27,31,-92,-7,16,49,126
-22,-23,38,127,-74,-3,51,58
31,20,20,-115,66,-6,-128,-128
-62,-128,-47,-34,9,-13,-35,-89
26,48,9,-21,-17,-8,9,68
-1,-2,2,42,-30,-2,1,30
12,34,2,-27,0,13,36,54
39,15,1,2,-16,-6,48,127
48,48,36,110,-71,-11,33,78
-15,-78,-68,-128,127,26,-58,-128
-50,1,-11,-38,24,-7,-61,-121
-19,22,12,17,-4,-2,-11,16
-21,10,40,-21,-51,-12,-21,-23
3,39,2,26,39,11,21,32
60,-15,-45,-10,-6,7,47,127
-65,-22,35,-12,-128,-38,25,63
11,30,-93,-73,127,45,-33,-120
-1,19,20,-5,16,-4,-43,-65
1,-27,4,-25,-22,-18,-40,-74
-28,-28,10,-12,-15,4,23,27
22,2,11,-45,-28,9,74,127
86,46,-4,61,14,-6,16,4
-81,10,-6,-27,-13,-10,12,-25
-71,-14,3,14,-4,0,-27,-87
10,59,40,1,-19,-5,-13,33
-19,-128,-61,-52,16,-4,53,109
-31,-7,-37,10,32,20,16,-82
36,11,27,127,6,-6,-30,36
17,7,1,-84,5,9,23,60
13,26,-1,2,-6,-5,10,-16
-61,-78,-29,15,31,8,7,-47
-25,-23,-31,-128,-128,-32,-12,-5
44,5,-58,127,127,31,11,25
-48,-1,43,-92,-9,-10,-9,-4
12,10,7,7,6,9,14,55
9,20,2,2,3,10,59,67
-21,17,-3,-64,-24,-6,13,67
-40,-11,-19,48,6,-7,-30,-80
30,-30,-1,127,-12,-16,-63,-128
-23,9,20,-53,-53,-13,2,52
30,56,-34,55,94,27,38,46
-10,6,6,-14,0,6,3,22
1,-1,14,-128,-68,-14,-18,-18
58,-52,15,127,37,4,65,10
8,-36,14,-36,-46,-8,5,46
-15,-25,-4,-23,19,-12,-24,-83
-1,-25,-23,2,-13,-4,-12,-41
-4,28,31,127,-49,-15,-3,21
5,4,-4,-29,71,21,16,1
27,25,-51,2,-7,2,8,51
-76,-21,-6,3,-17,-5,4,47
-11,19,18,7,-8,-7,6,25
14,-8,-33,9,-6,4,27,48
-7,12,19,-8,-8,4,21,78
-16,2,9,-46,-63,-2,8,-11
-4,9,0,127,50,-1,0,-37
-23,25,-52,-128,34,-12,-31,-13
51,15,3,-42,6,0,-13,-11
91,8,4,22,-8,6,16,75
-70,-11,20,-76,-110,-24,-4,-47
-46,-50,-39,61,91,1,-29,-128
-2,46,24,-128,-34,0,22,29
-5,-26,-4,127,-40,-7,18,50
30,48,2,127,119,39,37,8
-46,-128,-93,-128,10,-16,-81,-109
-49,-128,2,-29,-34,-22,-44,-26
1,22,38,-12,-30,-5,5,21
5,26,18,-13,-23,-3,10,17
19,43,40,-115,-116,-26,23,121
22,24,-37,111,127,35,19,56
-76,-32,1,-99,2,-2,-40,-128
-10,-39,-50,-48,-26,-21,-18,-29
-13,-5,42,-16,-12,2,8,23
2,3,-4,0,-5,-1,-1,17
-39,12,1,13,-4,-1,11,-8
28,9,3,15,8,15,29,127
-4,-1,3,7,7,17,66,-10
30,5,8,42,-57,-16,-76,-128
-65,54,-3,-2,78,-9,-73,-13
-23,-81,5,-3,-9,-9,-27,-75
-37,70,26,-2,-16,-5,2,-4
18,36,2,-57,-17,9,44,125
43,2,10,118,3,12,35,18
-87,-71,-15,-37,-4,-6,-42,-17
-39,51,5,-58,-53,-12,-7,-8
2,-4,-35,127,127,21,26,42
71,-38,-6,-52,-10,-5,3,16
1,15,6,-32,-12,5,17,34
21,9,27,-52,-55,-20,-8,-14
-22,-4,69,127,-66,-20,-36,-59
6,-11,-128,-128,104,43,13,3
-17,-6,-18,-53,1,0,5,9
6,12,1,50,-40,-10,18,118
35,88,127,-128,-128,-39,-18,-56
6,-88,-127,127,127,46,-13,-89
-48,-49,-30,-51,-29,-27,-26,-24
-16,22,11,-27,-32,-11,-30,-5
0,10,25,-15,-32,-10,12,45
21,12,-7,-24,-16,12,59,127
-3,39,49,127,-78,-27,-14,12
116,42,-26,-128,69,-3,-80,-128
23,39,17,-11,9,12,-35,-6
-85,-128,-55,-8,-7,2,35,71
11,19,-30,0,-13,-2,28,57
17,87,5,5,-6,-8,9,20
-2,-68,18,-49,-44,-15,-1,-51
19,15,14,127,38,10,4,61
14,8,-12,-70,16,-1,-2,-5
-23,3,7,2,-3,-3,9,-25
-11,1,11,12,-7,-8,-24,-102
-6,5,2,13,-3,0,-26,-17
8,8,8,-1,-12,0,6,45
-6,17,-4,5,-5,1,12,31
-20,-17,3,45,-41,-10,7,25
50,21,15,49,75,31,26,21
92,-2,-56,65,9,3,12,4
-12,-45,-41,-16,2,-11,-15,-15
-121,-54,15,46,-95,-30,9,51
-90,-4,-42,-61,63,16,4,-45
53,13,0,48,37,6,-39,-96
0,-10,6,-19,-14,-1,-1,3
2,53,30,4,-24,-5,8,24
-2,-17,-32,-9,-9,-2,-3,24
-20,27,11,-92,-69,-16,11,20
-32,-7,42,127,37,9,3,-14
6,-109,-56,-73,88,10,-25,-83
90,50,5,-25,-5,-1,11,33
-8,14,-20,-22,-22,-7,1,65
-55,-21,-11,13,-23,-12,-50,-128
-10,14,1,-35,0,1,15,31
-12,-5,17,29,-26,-8,17,4
16,14,-10,15,21,13,-4,-14
25,29,11,4,2,-1,-14,-56
-17,-8,9,-1,-4,-2,-5,51
5,-33,-32,-63,-30,-14,-5,-19
-31,-3,9,98,-31,2,22,64
23,51,0,-57,80,58,76,96
71,-20,6,127,-32,-44,-72,-128
5,-25,-52,-128,16,-9,-66,-128
-36,19,10,-32,0,-3,-18,60
-2,-68,6,-8,-16,4,10,94
-3,25,-31,-4,-35,-13,0,-16
-2,35,41,53,13,3,37,99
82,8,-5,29,-5,0,27,112
3,0,75,-88,-4,-1,-12,-85
-87,-10,-68,61,23,2,-62,-128
-2,-1,-33,-13,-6,-3,-6,38
-2,22,48,-128,-88,-12,9,41
22,45,-45,100,41,5,35,102
-5,-7,-55,127,127,23,10,30
28,-128,-14,-45,-5,-11,-33,-128
-37,-12,9,-32,-28,-12,-9,-10
3,42,1,-29,-28,-5,-1,-25
-4,-25,9,-9,-22,-2,10,34
7,25,12,-51,-19,-4,17,39
-2,16,25,127,-82,-6,-1,-32
3,-2,-59,-128,98,3,-15,-57
-30,-10,12,-44,-7,-12,-27,-70
-15,17,8,5,-21,-13,-7,11
51,12,-5,17,-11,3,-3,32
-82,-42,2,16,-10,3,56,-8
-59,-12,4,-44,-19,-9,-19,-25
6,22,7,113,-6,5,13,45
106,36,3,44,49,2,17,126
22,-10,-49,-55,0,-7,-19,-128
-70,-128,-7,-30,-16,-17,-64,-86
-42,6,5,-2,-10,-11,-37,18
8,18,2,0,-8,0,20,47
13,30,4,7,-1,7,22,50
34,51,18,-128,-45,4,67,127
11,-42,42,127,-52,-7,80,127
-29,-28,-87,-128,71,3,-85,-128
-84,10,83,-4,-42,-37,-128,-128
-2,-33,-16,2,-39,-12,-8,63
2,-39,-102,-7,-26,1,28,92
16,-6,16,11,-9,-2,25,62
7,20,11,15,0,2,19,32
5,4,35,-103,-50,-7,2,4
-13,-13,-1,127,-2,-8,-5,-17
15,37,-1,-76,80,27,14,-1
-6,25,-20,-53,-9,-5,6,-4
52,-13,33,17,-13,1,-2,19
17,-6,-43,-14,-12,-6,-21,-22
-109,-52,-11,-14,-14,-15,-23,-86
-23,-40,-36,2,-3,-6,-18,-59
-10,-12,18,7,5,-2,12,53
-8,52,46,123,-55,-9,31,127
58,61,-38,-128,46,21,36,-67
-90,-40,-24,127,88,-22,-89,-128
7,-19,8,-8,4,-10,-37,39
-2,-25,-4,-8,-10,-5,4,28
-17,3,-4,-7,-14,4,31,82
36,45,16,-8,-8,10,51,105
31,-26,-43,-10,-7,-8,-6,-14
-111,-52,7,1,0,-12,-53,-121
-2,24,1,4,-1,-6,1,-4
15,18,23,-81,-78,-8,-8,71
23,-34,-22,127,116,30,42,55
-14,-20,-9,-31,4,-6,-19,-110
-22,-64,-2,-51,-20,-11,-14,15
-7,0,12,43,-9,-9,-28,-52
-9,25,31,-43,-11,-6,-8,-4
-13,-25,-28,-76,3,7,7,23
-7,18,8,98,-19,-6,7,42
9,14,8,37,-51,-13,1,5
-8,-29,-2,-1,109,20,-2,-33
-16,-8,-9,-29,-20,-5,17,48
0,14,26,39,30,22,25,13
5,-3,-48,-2,-10,-18,-44,-111
23,-17,8,-12,-26,-15,-27,-13
-31,-22,-26,-7,4,-2,-5,-9
-5,9,17,-60,-19,0,9,7
14,5,41,71,-83,-9,45,127
19,15,-11,-1,127,62,44,87
65,-7,-25,-62,0,-8,-38,-92
-9,0,8,-27,-25,-28,-76,-128
-13,-69,-2,-7,-16,-8,-16,13
-7,12,-5,-4,-11,2,25,82
32,52,7,-39,-9,16,48,111
17,24,24,118,-50,-10,21,35
-9,-12,-47,-61,90,16,-43,-66
-11,11,-24,5,-6,-10,-5,-16
-5,27,-6,2,-10,4,4,-4
26,40,29,5,-4,11,35,107
75,23,1,-27,-17,-15,62,14
-128,-44,-2,127,-49,-23,-67,-128
-35,-81,-17,-83,67,3,-36,-33
25,25,8,-128,-23,-12,1,13
-4,4,34,127,-39,-2,7,11
26,26,12,-53,98,32,28,20
32,-3,-91,-43,3,2,12,32
8,4,10,-90,-50,-10,7,123
-39,4,-8,88,29,-6,-7,-108
-9,36,24,-8,-13,-3,-33,-128
-4,-13,6,87,-12,-7,-11,18
0,7,24,33,-38,-14,0,43
-14,-4,-17,-104,15,-7,7,24
7,5,-23,70,8,-3,-3,-46
22,31,42,-60,-48,-5,6,74
47,12,-66,84,87,22,35,83
39,-25,-37,-23,-20,-7,12,-31
-128,5,10,17,0,-7,-72,-128
1,-106,26,2,-14,-6,-34,-28
27,28,-7,-6,-16,-7,-1,51
44,-4,-10,10,-13,0,24,95
12,44,44,-123,-47,-15,-4,-20
-7,27,-10,127,69,-4,4,-83
-16,-19,-10,-33,-21,-3,-7,25
15,-13,-34,39,54,8,17,85
49,-14,-22,-58,0,-6,-2,-89
-61,27,54,-11,-13,-5,-27,-1
-101,2,9,-4,-17,-4,-20,4
-4,36,-23,6,-8,-6,37,30
-29,-86,2,3,-7,-4,4,10
-16,-22,-30,-128,-56,-22,-43,-49
10,-10,51,127,-16,-10,-19,-8
8,34,4,-128,103,44,25,53
22,12,-29,-37,-23,2,19,18
11,20,-5,-13,-41,-9,-12,-20
5,-35,-19,-9,-2,1,-12,32
-21,-39,-6,0,-20,-15,-12,-128
9,32,-19,26,1,-5,-2,3
-73,-8,49,15,2,-4,-2,-15
-47,-14,-29,-23,1,-8,2,35
0,-32,-72,22,-16,-10,4,49
22,35,36,-80,-25,1,14,86
20,9,-9,127,34,7,36,-69
53,7,-20,1,57,10,-36,-102
-40,-37,5,2,-10,-4,-17,22
-32,-36,-23,-49,-19,-20,-37,-5
19,-18,1,-29,-19,-18,-25,-29
36,31,22,45,-28,-8,4,43
17,32,-17,-122,12,13,21,30
-21,-46,-6,-51,-19,-4,9,37
5,-2,5,76,24,5,6,31
-18,11,-1,-11,-2,-2,-13,-82
44,23,12,-1,-5,2,2,31
65,15,-21,-128,-54,8,64,85
1,-16,13,127,4,-1,-4,-32
-32,-40,-31,-56,72,-16,-54,-128
-10,-5,-26,-36,1,-13,-32,-61
-20,58,35,-21,-23,-4,1,30
2,-16,-25,-6,-15,3,16,40
11,-9,-2,4,-9,8,18,35
8,48,-6,2,-9,-1,8,20
7,-6,58,-128,-125,-27,-4,7
-18,-28,-62,127,127,39,13,9
28,23,14,-82,5,20,22,8
34,55,9,-38,-28,-7,-12,30
-41,18,-54,-23,-31,-18,-16,-44
-1,-64,27,-4,-18,-7,-2,8
15,-58,-52,-7,-12,7,42,127
46,48,-4,10,-15,-17,-29,-128
-6,-37,9,61,39,2,-43,-38
-21,3,-3,-10,9,-7,-17,46
2,4,5,6,4,3,41,104
4,23,14,-44,-2,9,19,-32
-16,-3,-20,112,-14,-17,-11,19
-38,7,13,-52,21,8,-33,-41
46,-14,-10,-83,-57,-28,-31,-128
-19,-46,-8,127,64,10,-3,24
8,43,16,-4,8,9,19,80
21,-11,25,-68,-63,1,35,68
34,10,8,71,99,28,-3,-53
-19,-9,-12,-8,-13,-4,-42,-36
-113,-76,3,-8,-14,-9,-13,-13
20,32,2,-13,-13,-1,11,27
22,25,1,-7,-6,1,6,26
19,14,1,-9,-9,-7,5,16
1,27,19,-101,-62,-14,21,72
-11,-2,15,127,40,20,25,30
58,20,-43,-108,97,38,-13,-41
32,-48,25,-40,-21,-16,-33,-87
1,71,27,-19,-25,-13,-4,-17
-17,-48,-59,-12,-20,-8,-8,10
-11,4,13,4,-8,-4,10,20
-13,25,12,7,-11,-1,-3,29
-10,-4,6,-19,-6,3,-5,-5
4,8,51,-128,-128,-31,21,20
12,0,-53,117,127,26,37,47
-37,19,50,-70,44,18,-8,25
44,-7,-56,-26,-12,0,-13,16
8,0,41,-128,-128,-21,50,127
34,-36,-96,127,127,15,-36,-94
24,-48,15,-95,-8,-15,-98,-128
-90,-9,38,15,-33,-16,-36,47
12,41,-16,18,-25,1,28,93
16,21,36,19,-20,0,19,60
17,9,-10,20,-4,6,25,37
3,6,1,15,1,10,28,49
6,-1,-6,7,-1,1,-6,59
8,31,7,1,-3,-16,-13,-59
1,27,-5,9,-5,-17,-17,-70
70,-36,-25,2,-3,-9,-29,-86
-91,-30,27,2,7,7,-2,-9
-18,-47,4,0,0,6,5,5
5,6,-29,2,-1,6,8,6
8,47,14,5,5,-1,2,9
17,22,8,-9,0,-1,3,11
-10,2,12,-128,-87,-21,-7,-21
-5,-13,-20,127,78,4,-4,-24
-5,-6,13,-128,22,16,9,14
10,1,8,-82,-18,-3,-3,-6
1,14,4,-33,-13,-1,-15,23
-38,-11,-37,-128,-71,-19,-19,-109
-6,21,35,127,-54,-19,19,35
62,-33,-24,-128,92,36,22,49
47,23,2,-47,-27,-2,-26,-57
24,-18,33,-7,-36,-16,-18,-31
-20,4,-29,8,-19,-16,-23,-103
-29,10,17,12,-13,-5,16,60
43,-15,-4,10,-2,5,24,48
6,-50,17,-56,-13,-6,-28,-33
-24,-84,-26,88,13,-10,-14,1
-28,26,7,51,18,5,6,-8
16,44,15,9,14,7,27,41
8,21,-30,-16,-8,-4,30,118
18,-49,-5,-8,1,3,9,20
0,11,1,19,-14,-23,-89,-128
-32,-21,-2,-8,8,-4,-12,-15
-30,15,3,0,-5,4,8,37
34,35,25,42,-18,7,32,63
23,23,-11,10,-4,-9,-2,40
-85,-55,-16,38,55,17,-5,-23
-33,-76,-36,-16,17,-4,1,-15
3,12,6,-59,-39,-7,-2,15
5,17,33,6,11,2,28,5
-7,58,-19,-128,-49,-12,-15,18
-4,-2,36,127,30,2,21,33
23,-71,-79,-109,108,10,-24,-62
93,-3,23,-72,-14,-3,-29,-11
-128,-46,-16,-26,-37,-16,-25,-50
-16,34,53,5,-12,-5,3,-8
0,18,-4,3,-4,-5,6,18
7,33,-4,-20,-32,-6,3,20
-11,-52,-20,97,24,3,-2,9
23,24,-24,-25,21,27,38,117
5,43,35,-58,-63,-16,34,20
86,-20,-15,92,67,-21,-51,-124
-88,-88,-31,-2,-5,-13,-34,-36
13,46,31,-8,-10,2,2,-28
-32,-36,22,-8,-14,0,0,15
2,-32,-3,-9,-10,-7,-2,12
3,39,8,-4,-4,-6,6,18
14,13,5,-32,-19,2,7,48
-6,7,-3,18,12,12,12,10
12,4,3,39,17,6,26,16
9,8,-11,-10,5,-9,-40,-39
-15,44,1,-13,6,0,-18,-64
-37,-5,-6,-11,-12,-6,27,22
38,-59,-8,-10,-7,-7,2,31
4,5,3,0,-9,-6,-11,-5
-1,14,0,-4,-6,-3,-12,-30
7,19,9,10,2,-1,5,18
-22,8,25,-53,-80,-18,-1,18
4,17,10,127,37,26,44,127
36,34,-10,-89,101,37,40,13
-76,-23,-4,-40,-8,-13,-69,-128
20,19,-38,-35,3,-13,-35,15
-65,7,20,-9,-69,-21,-19,-49
4,0,9,-20,50,16,17,88
9,-27,8,1,-33,-6,15,24
-25,38,1,43,2,-12,-9,-89
-9,-42,15,-12,-10,-10,-14,18
-24,7,23,-128,-110,-25,-1,4
21,58,92,127,91,23,24,35
71,-25,-71,-128,75,34,19,45
8,4,-55,-39,-36,-7,-18,-67
-62,33,28,-5,-33,-8,-8,-29
-9,8,11,14,-18,-9,-11,-49
-24,-24,26,20,-7,-2,3,7
-9,12,13,18,4,4,4,7
38,35,5,-27,0,18,71,127
17,16,0,88,-8,-27,23,-21
0,-49,-6,12,25,-11,-116,-128
-36,-1,-15,0,2,-12,-65,-32
-8,15,-13,-6,-2,5,14,41
-2,-25,6,-8,0,5,36,74
5,24,-3,-4,0,4,17,39
11,9,-4,-2,0,-2,2,29
14,5,-8,-3,3,9,19,25
24,4,9,-81,-24,-10,-17,-99
-48,0,24,127,-55,-30,-31,-22
16,3,-41,-25,106,11,0,-12
-27,-7,1,-27,1,-1,4,-3
-12,-1,58,67,-15,-6,0,-27
12,2,-7,-87,-16,0,3,0
9,-15,-21,-67,-41,-9,0,12
-4,-23,5,84,32,2,3,23
5,14,-16,-34,2,-1,3,-13
17,8,14,127,-40,-3,8,-7
-32,-38,-7,23,11,-1,2,-43
-16,-17,-33,-128,39,-3,-42,-67
-13,16,-35,-85,-2,-17,-16,15
-3,34,35,30,-30,-1,11,26
14,12,-61,-2,17,12,29,127
38,0,-11,45,-9,-3,20,3
40,-14,3,-11,-7,-15,-33,-90
-96,-36,-17,-17,-12,-10,-31,-54
-30,-9,-1,-8,-10,-2,-26,-33
1,18,5,-1,-1,11,17,9
1,2,3,1,-4,-4,33,41
12,2,6,-44,-20,-2,17,48
30,-3,-20,49,19,4,8,24
3,11,-1,0,1,-13,-10,-3
5,-29,4,0,-1,-7,9,53
-45,15,10,-9,-10,-7,-27,-128
-28,-32,3,-2,-6,-6,-36,-71
-9,18,32,11,-3,2,6,39
14,-3,-55,-20,8,8,19,63
-15,21,-4,36,-20,-7,12,36
43,21,25,54,-26,1,13,24
32,-22,-17,-89,81,11,2,1
-128,-6,-17,82,6,-1,-31,-68
-6,-51,9,-102,-15,-2,12,9
31,27,-2,48,-10,4,30,121
-16,16,32,-17,-18,-10,11,-39
-14,-25,-35,-6,19,-12,-78,-103
65,26,-4,-38,-14,-7,-15,39
-12,-14,8,32,-2,2,12,31
-12,18,9,-6,-7,1,8,17
-6,24,15,-5,-4,3,10,14
-22,12,12,21,-16,-4,1,0
-10,91,26,5,16,18,15,0
74,-71,-36,-26,35,5,31,127
34,-102,-16,-34,-7,-5,-2,-56
-118,-20,-10,7,-5,-5,-46,-128
-20,26,26,7,-16,-4,-17,-2
3,17,-8,19,17,9,13,47
13,2,-21,9,9,8,13,32
12,65,74,0,-1,3,8,43
-21,-48,-38,-23,-18,-9,-3,27
2,9,-9,-68,-29,-17,1,-63
3,-27,1,45,-10,-9,-6,-43
-23,-4,-14,55,55,6,-33,-29
20,25,-23,-41,2,7,14,25
-6,3,24,-3,-14,-2,7,-17
3,32,24,34,-16,0,9,49
-1,1,-13,-105,-4,-14,-34,-116
34,12,12,69,4,-5,-20,-38
36,40,0,17,-25,-12,-3,10
8,-56,-10,24,22,9,10,15
-44,10,1,-106,-6,6,18,60
10,24,23,13,-85,-12,43,117
127,4,-46,-41,122,24,20,-9
-99,-18,-1,-59,-4,-11,-84,-128
-26,-24,18,-24,-19,-12,-24,-23
6,18,-35,-11,-16,-5,-6,28
7,11,6,-17,-20,-5,47,44
-1,-37,0,6,-20,-1,9,20
-12,12,26,122,-13,-1,2,4
-2,38,-5,-45,63,20,1,20
34,0,12,-15,-5,-4,16,53
23,-42,3,16,1,-7,-7,-8
-12,56,-16,3,-12,-10,-31,-124
-38,-47,-9,0,-5,3,8,42
11,-14,-28,3,-7,0,2,56
-15,-4,-44,-7,-7,-11,-26,-96
-34,-3,115,-82,-36,-7,-13,-86
-85,-11,-35,74,25,2,-3,27
68,21,-59,62,17,3,11,43
-60,27,8,-37,3,-2,1,9
4,-75,-2,-9,-13,-2,-3,5
5,23,2,-29,-13,-6,12,34
4,-1,6,-52,-35,4,32,75
-1,8,2,74,10,-5,-11,-42
-22,11,-13,61,51,5,-38,-128
25,-61,1,-84,-4,6,-20,-33
-36,-13,-32,-33,-11,-15,0,0
-14,10,9,-99,-40,-12,7,88
20,1,10,127,15,-1,9,31
16,19,-4,-120,-6,11,30,-27
-21,15,1,78,42,8,-17,-29
-35,14,-12,-58,3,-1,7,14
-13,-10,2,-17,-17,-9,8,51
-1,32,35,-8,-13,-5,2,21
25,28,17,3,-9,3,-20,-87
-8,-68,-65,-24,-13,-6,5,7
11,14,24,-59,-16,-7,5,15
17,7,6,67,20,-6,5,20
18,-35,7,-118,-30,-8,-4,-6
-34,28,15,127,-11,4,-25,78
32,64,-13,-94,60,20,51,21
34,-74,-26,-45,-30,-44,-74,-128
-50,-47,23,-19,-18,-13,-31,9
-8,60,11,-8,-9,2,-2,-2
-7,-38,17,0,-7,3,12,77
8,-4,20,4,-1,-3,1,-54
11,4,-19,2,-3,2,11,15
8,8,-5,13,-26,-1,23,93
9,13,19,-35,12,7,11,36
-73,23,2,-40,-1,-12,-41,-128
90,-23,-27,35,44,5,-13,40
-32,-35,32,1,-3,-9,-10,6
-27,-31,-59,-11,-7,2,4,13
5,33,9,6,-19,1,34,37
14,10,-4,28,2,11,24,54
23,20,18,9,-29,-18,-20,43
7,18,-14,41,42,8,-6,-128
-35,-17,-9,-75,28,-12,-25,-10
16,-64,-29,-19,-13,-7,1,38
25,11,26,-7,-11,0,7,30
-17,15,23,15,-10,-1,-15,-112
-1,-6,-67,-24,-19,-10,-12,-10
-37,19,8,-35,7,1,2,39
46,2,9,25,3,10,31,55
68,13,12,41,18,5,24,39
-48,27,-11,-75,-16,-10,-50,-128
-39,-87,17,41,-12,-15,-39,-41
10,-43,-5,58,9,1,4,32
3,32,-16,-42,18,18,17,29
4,-37,8,-17,-8,3,8,34
37,70,13,-92,-23,-5,6,68
-35,-19,-7,87,-27,-13,3,31
-11,-15,-12,-51,27,-3,-23,-78
53,4,2,-35,-1,-7,-23,-49
14,-37,-2,-4,-8,3,12,77
-8,23,16,8,-10,1,19,47
-26,-17,-10,-17,-14,-2,-17,-69
22,17,-12,25,1,3,12,-13
58,26,-4,-23,5,-2,20,14
-74,-30,-2,-23,-25,-17,-50,-19
3,22,1,98,49,13,5,3
80,64,3,-4,-7,0,15,58
-61,-91,37,16,-20,-8,15,7
-41,4,-2,-28,-6,-7,-23,-59
15,9,-7,-96,-6,-1,-9,2
12,19,27,-10,-26,-5,5,27
11,17,35,127,16,12,24,71
14,1,-24,-128,8,13,20,15
47,14,-21,80,38,7,-10,-43
31,50,-36,-80,-54,-29,-16,-20
-100,-89,6,73,2,-13,-31,-91
9,-80,7,-28,19,6,23,42
19,-13,14,16,2,1,-2,-2
-9,28,10,-22,-3,4,-4,-7
12,37,2,4,-20,-1,32,116
-9,-29,-5,-58,-9,7,34,-58
7,0,-19,70,-4,-21,-47,-110
-5,0,-11,-45,21,0,-93,50
14,57,37,-8,0,10,97,81
-6,-21,8,-1,-11,-4,-4,-52
9,5,2,-59,-22,-12,7,44
0,-6,0,69,-6,-2,-11,-110
-86,-8,-2,-15,0,1,13,-16
-53,15,33,70,-11,-18,-66,-38
-39,0,19,-83,-23,7,31,99
28,3,-22,127,60,21,42,68
85,8,-7,6,21,-5,-30,-94
-51,-31,-17,-12,-27,-14,-18,-92
-24,22,16,-17,-13,-10,-4,12
5,16,56,-48,-38,-2,5,27
5,40,5,94,20,11,18,22
-27,-11,-45,-2,-63,-9,11,49
56,2,-37,58,127,26,20,4
37,-89,-10,-38,-14,1,-15,-54
-23,-10,32,-16,-19,-10,-15,2
3,-9,-30,-18,-18,-8,0,7
-27,2,-11,39,-14,-9,1,8
20,27,24,-69,-48,-3,21,87
16,27,-5,69,76,18,38,127
52,20,-17,-8,6,-6,-22,-128
-27,23,-3,-7,-12,-19,-82,-128
-35,-41,10,2,-9,-3,10,25
22,-55,-33,-35,-21,-7,6,49
-5,-22,2,68,-5,3,25,68
4,11,9,19,20,14,29,66
-24,12,29,-27,10,9,-9,-47
22,25,-30,3,4,-4,-1,-54
24,-5,-40,-30,-32,-9,-10,3
-49,3,-7,-1,0,3,0,-2
-27,0,15,107,17,1,18,68
68,-6,-16,-77,40,20,19,58
-16,-6,14,-69,-42,-5,-2,-119
85,33,8,63,14,5,19,4
4,30,20,40,42,-6,-67,-57
-99,-106,-55,-5,-16,-13,-31,-105
-3,-9,28,-128,-62,-16,16,83
-11,-1,-5,127,14,3,16,62
78,5,-7,-128,47,24,1,-90
-8,14,3,-31,-23,-7,-9,-13
-7,30,15,-10,-26,-5,-21,-6
14,9,9,-8,-20,-6,7,24
12,1,-30,-67,-21,-6,18,31
11,8,2,77,9,6,13,45
-33,-14,1,-2,12,9,2,28
31,16,1,-26,-8,-8,-19,-108
6,50,53,-85,-25,-7,26,118
18,-11,-32,127,31,9,23,51
-34,-102,-65,-100,-15,-23,-79,-128
-16,-49,-5,-14,-12,-1,-21,-30
15,22,4,-13,-19,2,11,122
2,-4,69,4,24,10,48,-16
1,30,-5,0,1,-1,-7,-52
8,29,-18,-6,-9,-5,-5,35
65,28,4,46,-57,-11,0,27
46,-5,13,-5,51,2,-11,-22
19,-9,-37,-39,29,2,-7,-19
-57,-33,9,-67,-21,-3,-2,-6
40,5,11,103,4,8,1,-7
-17,16,2,27,10,4,21,21
16,10,-9,-77,-13,-12,-20,-10
10,-12,-5,84,-16,-6,-5,-4
5,8,6,59,-5,-8,-2,61
17,51,-3,-2,24,12,22,34
5,10,14,-96,-6,2,-10,-37
-22,-77,18,-116,-112,-27,-37,-104
16,13,-57,127,127,36,12,19
-6,-4,-10,-39,3,-1,3,12
-1,14,13,-30,-18,-1,27,72
14,23,18,-13,-24,-1,12,69
43,-8,26,6,-6,-7,-13,-100
-69,3,-2,-24,-2,-6,2,16
-54,-62,-30,-6,-4,-10,-24,-85
56,11,-8,-2,-14,-7,15,7
-75,-6,19,8,4,2,19,51
20,8,-23,-2,2,5,-6,31
25,8,32,29,-18,-5,-1,-3
-74,20,-15,-25,21,3,-24,-42
2,-19,-1,-21,-5,-17,-26,-10
5,-15,21,17,-45,-18,-12,-22
4,8,-13,49,38,13,12,42
-14,27,0,-35,14,5,61,107
19,22,8,-36,-8,-3,7,-52
43,2,-10,-11,-29,-16,-34,-56
-11,44,4,58,-11,2,-8,16
-19,-45,-11,-49,-5,-4,-5,5
-27,-37,-11,13,14,1,-13,-15
43,62,19,-25,-7,1,30,74
6,17,-9,12,-11,-4,2,19
6,-85,-31,31,-1,-2,-35,-51
-11,14,13,-111,-42,-13,-30,-105
27,22,-17,127,45,3,9,27
-23,-41,-27,-96,19,12,20,11
-5,-10,-35,-42,-26,-4,-5,-5
-9,17,10,45,-12,-9,-11,7
7,-2,3,-128,-29,-3,6,54
34,-7,-9,127,47,2,6,7
-8,-28,14,-72,-37,-8,-16,-81
-26,5,-40,127,15,-2,1,15
27,52,17,-90,-1,7,21,67
33,-9,-12,78,14,2,0,-5
-5,-128,-43,-43,-20,-21,-29,-114
-56,-43,20,-8,-8,-2,6,6
22,83,28,-16,-53,3,40,85
22,-23,0,102,74,3,2,-12
86,-10,-73,-31,2,-14,-50,-54
-62,16,-14,-7,-10,-11,-37,-88
-16,-5,9,-6,-11,3,-5,-8
11,15,20,19,6,8,35,104
11,18,15,12,1,8,52,85
29,10,-6,-12,-2,-1,-30,-128
6,-57,-15,-6,-2,-8,-48,-1
-11,-28,3,-32,-12,-5,6,19
-13,0,9,-2,-64,-3,28,92
19,38,11,127,83,30,25,78
8,-37,-33,-128,4,-12,-69,-128
15,-64,-40,-38,-17,-19,-27,-20
-36,14,25,-19,-14,-7,2,21
4,26,9,-6,-11,-1,15,90
14,26,28,66,-33,-4,8,-14
28,-5,40,-128,-108,-15,-3,-2
21,-37,-62,125,127,56,38,51
-23,3,-35,-87,-41,-16,-44,-128
-9,37,17,-32,-26,-11,-24,-36
-6,-46,-8,-26,-30,-9,-3,13
1,39,28,-15,-15,-7,3,20
-9,4,-7,26,-11,0,6,8
-6,9,-22,-19,16,-1,-6,-2
33,27,13,78,-4,9,38,127
39,36,-15,-50,31,11,39,100
105,-59,2,-8,-19,-26,-73,-128
-43,-54,22,18,2,-9,-58,-94
11,28,13,16,5,2,-2,43
18,36,6,16,6,11,43,78
21,10,-3,-12,-12,0,-4,-15
8,-12,-10,23,5,-8,-4,27
-15,-20,9,-3,8,2,7,25
-3,17,31,28,-20,-1,-7,-39
-89,-82,-68,-122,-5,-1,-9,16
-98,-4,-14,67,15,-3,-19,-79
4,-17,-12,70,45,12,11,26
70,12,-21,-30,1,-2,-17,-101
-37,-11,10,-22,-25,-12,-15,0
-6,-20,3,-21,-20,-4,1,1
10,26,20,13,7,8,13,18
-7,30,7,24,18,5,10,22
-63,-26,6,-2,-32,-8,5,11
0,-19,17,26,12,4,11,33
15,25,-12,-108,20,14,-13,-36
-7,22,-27,-20,-13,-8,-12,-47
-32,-51,13,-4,-19,-13,3,-1
-21,49,9,-7,-14,-11,-18,-47
12,20,8,-3,-13,-4,-2,11
1,2,6,64,23,11,27,119
23,25,9,4,-7,-1,6,19
54,8,-42,-64,-30,-21,-20,36
-68,-12,-4,25,20,-3,-41,-128
-39,-86,2,22,7,2,-27,-119
-26,18,-22,-25,-9,-17,9,43
33,11,-16,21,-10,-5,-10,-7
20,-34,20,-103,-47,-1,11,46
10,-6,-1,124,23,-2,-11,25
33,31,-2,-97,35,20,30,53
-8,-25,-1,43,-24,0,2,0
-28,27,-6,-22,36,16,-2,-74
-13,-11,-3,-23,-17,-1,27,24
19,49,-3,-13,-13,-6,-4,-20
-2,-32,28,-18,-20,-7,-10,-3
-7,-43,2,-19,-14,-4,-7,-90
-10,51,118,108,-71,-5,-9,-25
6,-50,-128,-26,124,25,12,39
26,-19,-16,-43,2,1,9,30
17,23,-27,-5,-10,-1,-9,-16
-12,22,29,6,-16,1,2,2
3,14,-20,-36,-10,1,18,78
-7,7,11,32,-9,-9,15,18
-28,-41,-6,19,1,-5,-5,-58
59,-8,-19,-7,-3,-13,-31,-91
-20,17,-16,-32,-1,-3,-4,0
24,38,33,14,-68,-14,-2,14
-42,1,-21,112,101,12,8,15
-8,-23,-19,-50,18,9,15,27
11,8,-5,-19,-16,-2,-2,20
-1,-23,5,-9,-24,3,49,18
-21,14,-8,-25,-5,-1,-11,18
-20,-28,-14,-59,-31,-21,-37,-67
17,23,3,124,23,-10,-27,-75
-82,-5,-14,-6,7,-2,-10,-25
7,-10,3,-32,-7,3,20,74
-2,3,0,46,-19,0,-1,19
4,-9,-36,-90,15,-2,-28,-113
27,15,19,-9,-5,-8,-1,5
-5,-16,-24,-26,-11,3,8,59
-13,73,36,24,-25,-2,2,43
4,-14,-9,-4,14,3,-6,-76
6,-20,1,-41,-26,-4,23,7
-14,-42,24,45,5,-6,-15,-38
58,-13,-41,56,34,1,-1,35
-31,-34,-85,-5,5,7,8,12
-24,-21,31,-12,-12,-5,-7,-23
-14,-37,22,-8,-12,-4,-10,11
28,28,-12,-2,-1,5,25,56
5,11,14,3,-16,5,21,53
-128,13,11,14,-16,-15,-37,-128
30,-3,-31,48,50,-3,-41,-66
22,46,23,-44,8,1,-8,-19
8,37,-55,-13,-7,3,16,47
-6,-56,6,3,-5,6,25,73
7,9,-1,-107,-62,-10,8,37
6,38,-9,127,68,7,4,-43
-10,-5,-8,-8,8,-7,-42,-77
10,-19,-11,-14,-13,-10,-7,-42
10,1,27,2,-7,0,-4,35
19,9,-18,-25,-7,4,46,81
9,-17,25,49,-15,-11,-13,-9
-33,22,14,51,-9,-3,-8,-75
18,-21,-72,-66,25,8,-1,6
-45,-8,11,-11,-3,6,15,120
28,9,-11,-2,-12,7,38,10
35,0,25,-12,-22,-24,-41,-67
-93,-75,11,-110,-49,-26,-28,22
-16,11,23,127,-44,-14,-31,-118
25,32,-33,106,119,19,19,36
77,-48,8,35,52,1,-18,-30
-114,-55,-41,-39,-16,4,-17,-46
-6,12,8,-14,-28,-14,-4,35
-3,-18,20,-5,-18,-4,1,16
5,2,-5,-1,-12,-2,4,20
-1,0,2,0,-12,-2,50,38
3,-5,7,-23,-5,4,7,11
14,21,2,2,-38,-8,-3,74
28,40,8,24,4,8,13,25
30,-10,-23,-9,80,16,-9,-128
-97,-29,-23,-43,-25,-15,-37,-7
14,1,-21,-12,-21,-11,-10,-8
4,-14,3,-3,-14,-2,5,25
12,18,22,2,-6,3,11,28
-9,-1,-2,-14,-14,-12,4,62
20,39,47,-128,-103,1,62,127
45,4,-46,127,127,21,-6,-77
-56,-19,17,-111,3,-15,-107,-128
7,-8,14,-44,-21,-14,-61,-91
10,75,-48,-20,-13,3,16,61
-39,-45,2,-11,-14,1,28,57
-20,6,21,24,-73,-14,27,107
16,31,24,1,-36,0,19,58
101,-40,-49,98,127,22,11,3
-50,-54,9,-21,-10,-11,-56,-128
-39,32,17,-4,-26,-10,-13,-5
-3,22,10,2,-15,1,6,26
2,11,7,10,-6,1,6,18
1,40,2,4,-5,-2,-12,-28
-22,-37,2,-51,-12,2,20,23
-5,5,25,11,-48,-13,3,37
95,74,-30,95,87,11,1,1
-70,-50,17,-68,-2,-9,-31,-128
-23,-103,-101,-25,-15,-10,-20,-67
-14,3,27,-5,-7,2,11,29
0,-11,25,-6,-7,3,16,29
9,79,85,-21,-45,-8,-9,-33
40,18,-46,95,68,14,15,111
44,1,-31,-96,10,-3,34,9
15,-31,29,-6,-7,-1,-38,-111
-37,16,-18,-9,-24,-6,-17,-74
-8,-2,7,28,8,6,7,23
4,-56,20,-128,-37,-5,12,52
4,30,7,49,-21,-1,16,40
21,27,11,127,62,21,14,-7
6,-78,-59,-14,5,0,-15,-23
10,-46,-36,-47,-23,-12,-26,-73
-51,6,33,-34,-11,0,8,28
26,15,3,-12,-12,-3,13,67
7,-8,14,-1,-30,-15,1,-107
6,24,49,-19,17,-4,-20,-66
13,22,20,-94,-38,-5,-7,23
-20,-20,-55,105,17,2,10,26
11,32,-55,11,17,-5,9,39
101,-18,0,25,28,23,9,38
-54,-85,17,-9,-8,-1,7,34
25,37,-2,-10,-21,-13,-15,-50
-21,2,-5,23,-20,-13,-29,4
1,-16,-10,-51,-4,-2,33,-16
-25,2,20,8,-2,-9,-6,-28
6,-8,25,-5,-55,-6,11,85
18,22,-6,127,77,17,5,26
-33,29,-69,-54,9,-3,-28,-104
2,-34,25,11,-18,3,23,68
127,-7,-37,-46,0,-13,-9,-45
-110,7,-27,-11,-14,-7,-34,-31
-38,-63,28,1,-10,-1,6,48
4,24,30,-11,-41,-12,9,7
16,-14,-17,50,62,15,8,11
33,34,-7,-80,-28,-1,25,91
8,37,9,-36,-33,-1,3,16
38,-40,5,41,60,11,-31,-128
-53,15,11,-128,1,-2,-13,3
-16,-2,-76,-35,-16,-7,-3,-6
-19,-5,37,-3,-16,3,7,14
8,1,4,21,-16,-4,0,20
24,20,4,-17,-12,-4,35,43
9,5,22,-20,-44,0,13,19
14,27,-6,28,57,18,33,73
14,18,-20,92,66,25,12,-12
-7,-54,45,-22,-15,-13,-42,-128
5,29,34,0,-11,-12,-32,13
-9,-55,-88,-10,-12,-6,5,40
-5,18,-15,-39,-25,-7,16,84
-1,-5,10,62,1,0,3,-26
27,58,50,37,23,10,-30,-128
-17,-1,-31,27,-14,-5,-6,33
-39,-108,-10,-63,5,0,16,2
-1,2,19,-9,-10,3,8,36
73,70,8,8,8,-9,-9,20
-49,-7,14,-38,-31,-4,8,-9
-1,11,26,21,36,10,-5,8
-8,10,-22,28,20,8,3,-13
25,-2,-26,-83,-62,-20,-3,-2
22,-5,-4,127,66,13,11,38
17,40,11,-65,-5,3,-38,-46
-35,-12,37,-25,-28,-7,4,-23
-35,-50,-21,114,4,4,7,-11
-8,-50,-43,-61,19,-10,-16,16
47,54,5,-3,-15,-7,2,33
-3,19,8,-28,-34,-14,-33,-91
7,26,27,49,5,8,9,26
-22,-60,-54,-90,16,4,-4,6
37,-8,-17,60,1,-12,-6,4
-24,17,-3,-5,-6,-1,-14,3
12,2,9,-5,-5,-1,10,36
21,75,72,-23,-15,8,44,103
-9,-65,16,47,9,-4,6,-11
4,-10,-63,-4,-8,-6,-26,-96
-34,-116,19,-11,-5,-12,-26,-22
32,51,5,-22,28,10,11,16
-55,39,18,-15,-30,-10,-15,-51
15,23,1,-4,2,-6,-8,2
40,-7,12,-25,7,2,5,27
-8,-39,-105,33,13,3,41,51
-1,14,29,10,-15,-6,7,21
47,23,27,-2,-39,-8,12,63
-12,-17,-47,27,14,-9,7,69
-64,-14,13,-28,8,-1,-39,-128
-73,-40,-77,35,-12,-15,-46,-128
-6,59,23,-45,1,1,-1,29
23,5,7,1,-5,5,21,62
-19,-118,-31,-51,-25,-10,13,26
5,69,15,-35,-66,-7,14,55
-24,34,-22,127,120,12,-3,-48
71,-40,-30,-37,15,0,-34,-104
8,31,21,-21,-18,-8,-10,13
-26,1,17,-11,-19,-7,-6,10
-2,-21,-44,-9,-8,1,21,22
0,19,48,-1,-6,-5,4,8
1,15,2,-3,-7,3,-8,-7
15,8,-17,32,8,15,22,56
15,43,4,-76,-6,-1,47,65
5,23,-3,75,0,-10,-16,-45
12,-88,29,-86,-33,-15,-22,-30
-69,-30,-10,127,48,0,-26,-17
-40,-47,-91,-128,2,-8,-45,-128
7,74,12,-22,-24,-4,4,-17
48,43,27,-1,-10,-1,8,36
-12,22,21,-7,-6,-1,10,35
-14,-19,-14,-20,-14,2,11,34
0,26,37,-35,-65,-6,20,87
29,-9,-28,81,89,24,16,19
-18,10,-33,31,-32,-3,-13,-88
-32,-40,-16,-43,-2,-10,-22,8
-20,-29,35,-46,1,12,8,7
24,9,-15,34,53,14,17,27
10,-31,-75,-29,-12,-13,-3,-2
-58,1,0,23,-1,-4,-7,-46
35,9,63,23,-15,-5,-5,76
34,45,-7,-55,-15,-6,-19,1
-5,-4,-1,22,8,-4,-6,-107
-6,10,5,7,-3,-10,4,21
62,-70,-17,-8,-4,-4,-6,13
-56,11,-25,21,2,3,-21,-42
12,4,14,2,-5,5,6,27
14,-21,11,-38,-7,4,6,24
10,24,-4,-13,-16,-5,4,12
23,18,3,127,19,-2,10,40
63,9,9,-52,13,20,24,23
6,-14,-4,-92,-8,8,-6,30
-35,25,-47,41,-5,-14,-12,-19
21,-71,32,-43,-38,-28,-60,-128
-54,-39,25,-50,-45,-17,-27,-35
-26,-57,-71,10,-16,4,6,46
-2,2,-14,25,103,9,39,41
-2,10,7,-1,6,7,-10,-6
-22,4,16,-13,-20,-7,1,20
80,52,31,-2,-15,-8,4,18
-4,92,-29,-12,-15,1,3,1
-6,-79,-17,20,-36,2,1,-3
-48,-47,4,-10,-2,-16,-22,3
25,6,-16,-69,49,9,-2,36
10,-72,32,-9,-2,-1,-1,-61
-28,97,-2,-8,-8,3,8,-14
6,-96,-1,34,-18,-5,3,48
-14,13,-29,-14,-6,-13,-22,-13
11,31,-7,-22,15,-10,-26,-40
7,-99,-6,-47,-14,0,23,106
-16,39,53,4,-52,-1,38,91
-53,-128,-36,54,70,11,-33,-128
-20,26,10,0,11,-8,-61,-65
23,33,39,-14,-22,-5,-3,44
3,23,-43,-9,-23,1,47,78
1,9,10,63,-10,-6,15,63
35,-37,37,-117,-13,-5,-3,58
47,25,-5,20,65,22,7,-77
-42,11,4,-29,-13,-10,-21,-72
-10,-26,9,-42,-24,-5,1,16
0,16,18,13,-39,-7,-2,-56
-1,-9,-31,64,20,0,-3,24
-14,30,35,11,-3,3,5,8
21,4,-17,-55,13,6,31,78
13,-43,6,-41,-16,-7,5,16
-1,-22,52,14,-59,-22,-32,-10
1,-32,-58,56,51,10,4,-14
-17,31,-32,-42,21,-5,-28,-128
-110,17,36,-1,-7,3,-12,-9
-6,-4,3,-41,-13,7,-1,43
-39,20,6,49,8,-8,13,25
65,-24,12,127,-30,-15,-4,3
76,29,-34,-83,37,12,5,42
-10,-28,6,-31,-9,-1,-13,13
-16,0,32,-26,-18,-8,8,-72
-15,13,-22,47,5,3,0,6
-25,-47,12,-51,-15,-6,1,16
-7,-1,4,84,-8,2,7,50
15,26,-6,-128,-37,-5,10,9
-2,3,9,120,-7,-8,2,-6
33,53,-19,-60,61,17,-1,46
84,-49,7,-68,26,11,-15,-49
-27,-28,-10,-26,-21,-11,-12,-43
-22,-42,-22,-15,-23,-6,-7,-32
-15,8,-44,-38,-67,-19,-8,-10
1,-31,15,-12,0,-2,-23,38
18,41,41,43,40,6,8,10
27,-18,-70,43,71,26,33,49
-24,-81,12,-62,-28,-14,-24,-45
5,8,7,-24,-25,-4,1,-23
-19,29,24,-25,-24,-2,4,20
11,25,1,24,-3,7,18,21
-8,9,-22,17,-15,-2,25,35
21,88,39,11,17,-20,-37,-53
6,-128,-12,-6,-2,-2,-6,-28
20,22,-38,1,2,6,27,88
29,44,5,1,-5,1,-6,-57
-30,49,12,8,3,-2,-43,-28
-17,21,8,-16,-13,-15,-3,15
16,-50,33,17,-89,-26,14,-1
71,-14,-53,86,127,41,32,40
-100,58,22,-37,12,8,-34,-121
63,-26,-15,-22,-18,-22,-32,3
-78,-16,3,-14,-17,-5,25,27
-7,25,12,-46,-29,-8,6,32
-6,10,1,63,1,3,6,29
42,47,30,-11,2,11,39,106
29,14,-32,-27,-59,-8,10,41
32,-66,-19,127,43,-9,-60,-128
-82,-62,-40,-121,60,8,-9,-38
13,17,26,-77,-16,-6,3,29
36,29,16,22,-23,-1,4,34
0,37,52,125,12,4,17,39
4,-27,-24,-28,12,-5,2,26
35,-128,-29,27,-31,-1,-10,-43
-39,-5,-20,-13,28,6,2,-8
-4,27,37,-7,-11,3,2,34
10,41,-7,-42,-33,-5,19,12
-22,0,5,-10,-16,-26,-10,-27
15,-7,-3,25,5,-4,-23,-3
4,-30,1,-57,29,8,2,1
-3,35,23,-12,-6,-1,-10,21
4,-5,-22,-13,-21,-6,44,33
61,27,-3,-5,-16,-9,1,-49
-65,118,11,7,-9,-7,-17,-34
-30,-128,-14,-122,-33,-18,-14,-17
-10,41,5,127,-11,-5,-39,-37
17,61,4,-34,58,20,14,44
-11,49,1,10,-13,6,70,127
69,34,2,-63,5,5,42,15
85,-45,-22,16,-20,-39,-117,-128
-128,-66,-23,3,-1,-4,-51,-42
-17,-18,5,-1,-7,0,10,60
11,9,16,-13,-15,0,10,55
7,17,23,-48,-53,-13,49,46
30,32,25,99,48,13,11,36
7,22,-70,-2,52,9,8,8
7,20,-24,-42,-17,0,-2,-7
-33,-56,-26,-2,-29,-11,-12,-34
-42,-97,-7,-44,-2,7,11,1
4,-12,14,5,-1,4,15,22
28,-6,5,-18,-5,-6,-22,-63
0,49,17,-4,-5,-6,-12,-28
2,-3,-1,-94,-31,-13,-9,-10
-18,13,15,127,7,5,18,70
-29,19,0,-7,36,20,26,14
53,15,-4,7,-111,-28,-14,-30
67,-4,-57,71,91,8,2,-30
-74,-82,43,58,29,-20,-59,-128
-40,-37,-62,-29,4,9,1,40
57,13,-35,-26,-23,6,26,43
-103,-80,-2,-22,-33,-17,-18,6
20,32,20,-29,-29,-17,-15,0
17,-13,5,-33,-16,-7,36,40
-4,48,11,48,23,13,11,9
6,53,55,36,-29,0,9,5
56,-51,-44,5,45,5,24,114
-71,42,18,-28,-9,-2,26,-82
-74,-69,-55,-43,-25,-20,-65,-128
21,0,29,127,-21,-14,-15,59
21,58,-1,-84,25,17,25,77
-8,3,-11,30,3,5,-8,-18
-73,64,23,-65,-34,-11,-25,-128
-20,-49,-29,127,67,6,4,47
34,-26,-14,-50,3,-5,7,43
-24,-51,39,15,-51,-10,1,29
45,-5,-60,51,22,0,4,-25
14,39,-70,-70,-12,-9,-5,5
-18,-100,-20,86,2,3,-7,-7
-13,74,25,-6,-27,-1,37,45
-10,52,32,-33,-14,-8,1,-42
-2,-1,8,69,69,13,-11,-38
-11,-119,-39,-32,22,6,-10,-11
-9,-9,13,-36,-27,-8,-16,-5
-1,24,65,127,-92,-30,38,127
-84,25,-62,-128,106,49,16,-62
-13,30,6,-2,-6,3,-11,-35
16,-43,18,0,-25,-8,5,38
-1,37,-26,-21,-32,-16,-6,26
19,-42,38,127,-18,-17,-39,-46
-8,55,31,-128,-27,10,9,35
27,35,-62,17,32,-1,20,8
5,-25,10,-1,18,-4,-3,-4
-61,-44,-27,-15,-8,-4,-8,-19
-68,-128,33,42,-18,-7,-4,-9
4,-20,-11,-6,17,8,10,9
2,-4,-15,30,2,-2,-9,16
5,7,15,-104,-57,-11,-21,-42
26,37,-21,127,109,20,40,86
52,22,12,-9,17,12,21,32
-48,13,-9,-42,-16,-6,-26,-120
-5,18,12,-21,-25,-17,-45,-40
23,-56,-6,-16,3,-7,-8,63
-48,0,52,-23,-6,-13,-19,37
22,-5,-55,-29,-12,-5,-21,-82
-36,27,31,-29,-12,3,14,17
-15,11,-17,113,-29,-7,14,46
34,-12,-17,-3,70,19,17,20
22,-43,-6,-94,-13,7,0,-25
28,24,19,-5,-3,-7,1,20
-22,-13,39,-11,-40,-8,-6,45
-24,-18,-23,55,-1,-3,-31,-14
3,9,-27,-128,-11,-1,20,-54
66,40,3,-21,31,6,-1,-51
-69,-79,53,-42,-19,-8,-12,-2
3,107,35,27,-66,-10,7,58
92,-44,-17,127,42,9,-6,-26
-83,-52,-48,-128,21,4,-37,-128
-19,-30,27,-27,-21,-12,-7,17
-13,3,-7,4,1,2,2,-14
28,55,10,8,-6,2,13,34
16,45,-1,2,-9,5,17,39
-2,-54,13,0,-12,5,44,96
30,98,-7,-6,1,-14,-10,-19
5,-40,-3,2,-6,-17,-51,-42
35,28,-28,4,-5,-8,-9,-28
-60,0,19,2,1,0,-61,-128
-16,38,8,5,0,7,22,34
-15,29,12,48,-34,1,45,52
73,-51,-25,12,42,4,-4,11
-2,5,-7,36,13,17,7,-25
-28,-46,-14,-45,16,-8,-4,30
-11,17,18,-32,-12,-2,-20,18
-4,9,16,43,3,2,-4,-73
13,-21,-38,-105,13,7,0,-5
6,49,32,10,-80,-15,17,46
3,28,-12,-115,98,22,14,43
-35,-128,-50,80,24,-13,-36,-74
-19,85,-30,-41,0,-6,-16,-42
-13,-20,-3,-15,-24,-5,-15,-13
5,59,35,7,-14,7,11,-3
0,-110,-9,13,-12,-12,9,32
-17,2,19,-49,-13,-8,0,-12
9,26,17,-18,-24,-6,-18,-25
-4,-6,25,113,9,6,2,15
10,-56,-58,127,78,28,2,37
-28,66,2,-47,-8,-8,-6,-32
-22,-28,-13,-33,-13,-19,-39,-51
10,-1,19,-14,-9,-6,-13,-22
21,34,58,-15,-1,14,25,38
30,42,-17,-2,-58,-26,1,109
0,-93,-128,-6,56,18,25,2
-66,-2,9,-13,-2,1,-38,-96
31,70,47,127,-53,3,28,79
1,-128,-27,-128,78,19,7,7
-83,-91,-15,44,-24,-18,-69,-128
-21,27,46,-128,-14,4,-11,-10
22,53,10,65,41,17,46,81
-3,89,-26,-38,-10,0,-8,8
-36,-128,-25,-17,-20,-22,3,-50
27,16,9,0,-14,1,9,26
8,2,-7,-38,-16,2,14,47
-14,-19,8,37,-7,-4,2,-5
-10,-8,-30,22,-30,-14,-31,-68
7,56,56,46,20,5,-8,0
19,-9,-71,62,83,27,21,14
9,8,84,-14,-1,3,3,-18
-37,-74,-83,-32,-25,-8,-9,-25
19,-24,-42,-25,-23,-11,0,10
5,36,23,-15,-19,-4,1,4
2,17,27,83,-21,4,16,35
26,43,25,-64,25,15,37,43
105,44,-4,3,-10,-9,-20,-42
-2,-59,-5,127,-5,-28,-51,-4
-40,126,8,-128,7,-1,-13,-50
-46,-101,-28,53,2,4,-5,-91
-37,-106,-38,-14,61,17,-26,-22
63,40,1,4,-14,-7,18,29
15,13,0,1,-19,-9,-8,-12
20,29,24,3,-12,2,2,43
-7,27,12,-2,-12,2,30,112
9,16,4,-2,-7,-2,-1,-54
-57,38,-35,1,1,-12,-25,-109
-22,-103,-17,-12,-4,-9,-33,-104
-42,0,63,0,-1,2,-11,24
4,22,-13,-3,2,11,14,38
-7,-35,12,-3,-2,-3,6,32
13,16,-17,-46,-19,2,35,110
60,37,21,-128,-66,-10,13,16
-63,-26,-18,127,72,0,-49,-128
3,38,10,-128,82,18,-23,-12
8,-19,-64,-25,-26,-9,-2,7
-1,-2,7,-14,-49,-16,2,22
1,17,15,-74,32,10,17,28
-7,28,16,-36,-37,-5,7,31
32,16,41,83,16,9,-7,56
31,-12,-23,-75,-9,-4,48,-16
-35,17,-11,90,8,2,-11,-105
34,40,5,53,-10,-1,-4,22
-27,-9,-22,-90,30,3,-13,-16
0,-2,-10,-10,10,-3,-21,-20
-30,6,23,-8,-14,-14,-1,26
31,10,-27,-8,-18,-8,19,90
82,25,18,26,-14,-7,21,87
-51,22,-1,-34,-2,-5,-42,-128
-2,-29,-24,45,2,-8,-29,0
-9,-35,16,2,-3,-3,-4,54
-10,3,-13,-2,-7,-3,7,42
-6,22,10,0,-2,3,20,89
48,51,10,3,7,11,58,51
35,1,-2,-26,-11,-8,-24,-98
-33,13,0,-4,-57,-26,0,-26
-95,-65,-12,19,52,2,-13,-11
16,46,-68,-13,-31,1,1,-47
48,45,10,33,49,10,10,11
2,46,22,-128,-20,5,-2,-8
-2,5,28,127,47,6,-7,-8
21,15,-69,-17,4,3,14,76
8,53,97,-6,-100,-30,-14,-128
-41,-128,-66,49,86,18,-23,-102
-27,47,69,-45,-33,-5,-9,33
8,66,29,127,-25,0,25,39
4,14,-2,72,127,32,10,-5
-12,1,-96,-81,-22,-16,-24,-20
1,-27,-2,-30,-33,-14,-16,0
36,15,18,-10,-30,-7,6,31
17,53,26,3,-14,8,17,-7
53,27,10,3,-6,-1,-2,51
32,-19,-7,-5,-8,-10,3,42
-72,-128,-6,-11,-11,-7,-22,-94
4,37,13,17,14,8,33,23
4,38,-28,-2,0,-14,-33,-51
57,24,4,6,0,-2,-14,-17
-41,0,2,-2,1,-7,-30,-93
6,17,0,2,0,-1,3,64
36,61,24,-1,-4,4,9,23
-32,-44,-9,-11,-3,4,4,-4
-3,-28,-17,1,4,-7,7,1
0,11,18,-37,-24,-11,-11,-20
21,10,13,92,-18,-2,1,14
-25,-23,-19,-31,74,27,18,31
3,4,-17,-26,-14,0,3,18
0,-11,-10,-26,-26,-22,-4,46
69,24,14,-22,-9,-6,-4,-55
-61,23,0,48,11,-7,-21,-104
6,51,36,64,-22,2,-12,9
-25,-38,59,57,55,12,8,23
24,-99,-115,-20,-10,-8,-6,-14
20,24,16,-39,-16,-10,-2,9
14,28,24,-37,-5,4,2,-15
5,91,36,-8,-22,-7,-13,-8
-4,-18,29,59,-40,-6,-6,12
6,2,-20,3,39,9,56,61
-14,0,7,-45,21,10,24,112
-25,29,11,-61,-16,-6,15,-96
80,-1,3,89,-4,-5,-39,-128
14,17,-28,-14,5,-1,-9,37
-26,-2,6,-13,-8,-8,-14,-27
-69,-128,-1,-9,-11,-11,-14,-22
34,-55,4,-3,-6,-2,9,57
10,-1,13,-13,-21,4,10,-6
-28,60,10,-6,-10,0,5,40
46,20,-23,43,39,-9,-15,-2
10,-50,2,55,23,2,30,86
39,-19,-38,-51,-7,0,-4,-115
-22,43,28,-5,-7,1,-15,-41
-11,48,-22,-7,-10,-1,3,16
8,-16,3,-49,-64,-13,5,26
15,16,-14,127,50,13,8,46
5,40,10,-27,38,15,13,-1
-62,-45,-81,-40,-11,-14,-20,-47
17,15,53,-55,-23,-21,-4,32
0,-44,15,65,-16,-4,0,16
-26,-27,-36,-128,-22,-4,-8,-79
2,-15,4,127,12,6,-5,-6
1,27,25,-31,11,16,6,1
9,31,-23,-30,-9,-6,-6,7
-1,-9,-25,-26,-7,0,6,13
22,16,19,-12,-6,-1,18,62
-22,13,10,19,-11,-5,-2,1
-15,24,25,57,2,1,-11,-105
10,-102,-6,-30,4,1,-5,20
41,6,5,4,10,6,-5,2
4,-1,-14,-18,-13,-15,25,-17
1,-1,5,11,-12,-7,11,90
-18,-25,3,-25,-9,-4,3,11
15,53,24,-57,-52,-8,-23,-128
-57,-33,-19,127,95,21,-13,18
-6,-59,-16,-6,26,5,8,37
18,-16,-35,-23,-13,3,1,11
-3,9,13,-14,-17,-4,1,12
-24,-31,8,-24,-19,-3,11,14
46,11,-2,-20,-4,-5,8,75
54,24,30,-90,-53,-8,29,79
-59,-4,-24,127,48,0,-7,-128
8,73,15,-53,14,7,-8,-20
33,-61,-48,-17,-16,-10,-14,6
-28,-85,8,-23,-7,-2,-4,16
11,4,16,-72,-36,-9,-1,1
-39,14,41,127,-86,-16,-9,-23
31,49,-38,-74,127,42,64,127
53,6,7,29,27,-6,-22,-1
-21,-128,-56,-39,-13,-10,-84,-128
34,22,30,1,-16,0,-1,41
-4,61,-48,-8,-20,-3,10,47
-31,-91,-6,-2,-11,-4,12,31
4,56,20,3,-4,0,19,24
2,22,12,-23,-1,-4,8,4
4,10,38,-6,-34,1,15,24
16,17,-4,101,-6,6,4,43
-14,-11,-34,105,82,8,9,-54
5,4,-10,-71,29,-5,-32,-116
-1,0,18,-14,-12,-7,-7,1
11,-16,-9,-10,-10,4,7,24
-16,11,32,2,-11,5,-5,-11
-32,-59,-10,-7,-16,-7,-15,3
30,-1,4,1,-2,-4,-2,-37
-12,13,-1,-25,-15,-7,-6,-37
15,34,-7,2,9,11,42,123
80,13,14,-72,-15,6,18,65
-26,-63,2,112,48,2,-59,-128
-52,-17,-37,-55,26,-14,-39,-8
-7,-13,-12,-16,-17,-8,2,23
1,19,19,-14,-17,-2,12,37
2,19,10,13,-4,8,20,31
6,24,32,-19,15,8,20,25
4,6,-1,50,-19,-14,-8,11
5,-13,-46,-45,0,-6,-9,4
109,18,-20,-1,4,-3,1,-35
-106,-3,34,-118,-32,-4,23,-2
-33,52,42,127,-29,-13,-3,8
-18,-31,-61,-128,78,16,-10,24
26,-101,-19,-44,-17,-8,-24,-97
-6,52,22,-18,-25,-11,-17,-44
17,48,29,19,-47,-7,7,19
33,6,-15,45,29,8,22,67
-7,17,24,6,27,11,17,4
-11,17,10,48,-30,-16,-22,-26
-43,-69,-22,-36,22,-3,-20,-25
0,7,-1,10,-9,-2,7,24
-9,-6,-11,1,2,6,13,27
10,-29,-2,-3,-13,-16,-1,36
-28,-9,13,2,-4,1,13,33
46,56,-2,1,-2,-3,11,39
17,12,25,19,-77,-12,-13,-44
-116,-57,10,56,102,15,-39,-128
4,-24,-83,16,10,-8,-33,69
-9,-53,-25,-72,-6,-7,-1,-30
38,47,28,-9,-4,5,12,32
10,42,-3,-15,-8,1,15,26
-5,-23,20,-5,-12,-1,0,20
-16,7,-3,-46,-31,-6,4,22
15,9,39,38,-89,-21,14,58
46,0,-48,97,126,19,10,16
-45,42,12,-42,21,4,-43,-128
4,-12,12,-77,4,1,-9,-5
-22,7,-15,-20,-25,-6,7,-2
0,-62,-33,-15,-23,-4,-4,-16
-21,-15,10,-6,-18,-7,4,10
-7,12,23,-65,-42,-7,2,9
28,28,3,127,54,12,12,38
32,70,100,14,6,-2,31,104
11,-64,-79,-15,-9,-10,-17,-81
-41,-28,-46,-30,-23,-20,-44,-119
-3,-17,-7,-23,-12,-4,-19,9
1,2,30,8,-59,-15,26,38
19,11,-5,73,87,23,58,67
6,31,-1,17,28,21,2,5
3,-14,-28,-34,-13,-5,-9,32
-24,2,12,-1,-10,4,12,-15
29,-1,-10,-9,-26,-25,-36,-48
32,18,-10,-1,-9,-14,-28,-20
-31,8,4,5,-6,-6,-6,-45
-8,-91,-16,-5,0,5,5,15
-6,-15,38,-42,-11,-5,0,9
4,61,35,95,-36,-3,8,8
9,-7,-16,-26,67,17,19,7
-5,16,10,-66,-3,1,-5,12
73,17,-43,127,-22,-1,13,26
-47,-1,7,-59,58,15,-18,-7
-34,-3,8,-26,-11,1,5,15
-14,-28,-63,-20,-41,-17,-9,-77
-4,26,10,-78,-45,-10,-17,-47
2,2,5,127,43,9,10,15
-1,5,5,-98,14,3,14,50
15,26,4,-8,-14,-7,1,24
3,-13,-21,13,7,-2,-8,-14
5,-53,36,5,-5,1,-4,-80
-17,15,-58,-2,-7,-2,0,-13
-37,-14,-14,27,-16,-2,-6,26
5,-42,-19,-42,1,-6,21,21
5,38,22,-15,-7,0,12,5
16,23,5,-41,-79,-16,7,58
95,-8,-11,127,110,18,-3,-49
-58,9,-34,-30,15,-2,-29,-1
-41,-50,42,-18,-19,-9,-40,3
-30,-22,-9,-22,-21,-10,-23,-128
-20,58,-1,-13,-11,2,12,10
1,-101,3,-8,-10,0,14,47
67,46,-13,-3,-4,2,15,68
2,-19,-12,11,-2,4,4,-10
-21,23,32,-41,-20,-7,1,8
0,6,-1,18,-13,-1,12,35
32,24,20,-26,34,3,8,13
-31,-4,1,25,44,12,-22,-20
-4,11,0,18,4,0,-20,-89
-11,-30,21,-53,-19,-7,-15,-18
-17,-1,-14,-9,-61,-24,-7,-1
9,2,-54,21,53,10,2,32
29,-6,2,2,-5,2,24,31
-4,-4,61,-6,10,-1,-2,-12
-30,-5,-11,-19,-18,-7,-10,4
-11,27,-30,-59,-30,-11,-13,-33
-4,9,26,54,-19,-7,-2,29
35,-22,-7,-70,-1,-4,-14,9
27,-68,-22,25,3,-1,14,5
-51,-13,36,30,16,14,26,84
28,66,-2,25,3,3,7,-6
12,17,-39,-69,-14,-14,-65,-128
-43,-15,-20,-14,-8,-1,-21,29
4,-12,22,5,4,8,10,59
45,17,5,2,-8,-1,0,-39
-8,43,11,2,-6,-5,4,29
27,18,1,4,1,-1,41,36
5,-5,6,-16,-27,3,6,8
17,-100,-35,-7,33,3,-18,-47
-40,10,0,-4,-39,-22,-33,-37
0,26,-3,-10,3,-7,-8,5
0,-6,30,103,19,6,7,10
19,21,-16,-62,36,23,27,40
23,-19,7,-26,-12,0,-8,16
4,16,7,-10,-30,-11,23,-38
-15,-1,-7,54,-7,-6,-8,2
-8,1,-32,-44,-19,7,24,64
-3,21,-18,-1,49,2,7,-26
21,-58,-31,-48,-5,-4,-50,-29
-21,-9,-11,-32,-19,-14,-26,-103
-11,-10,51,3,-15,-4,1,5
-7,73,32,-71,-51,-10,5,17
-17,-54,-2,127,-4,5,10,19
-1,-111,-45,110,113,14,6,9
19,5,-73,-83,17,1,6,7
-18,22,15,-30,-21,-9,-11,6
8,42,31,-6,-16,4,16,93
20,29,27,-1,-12,14,59,99
-67,-123,-25,-23,-23,-33,-61,-128
27,15,-3,1,-8,-24,-56,-128
-49,-31,5,8,-11,-10,-48,-113
-5,40,16,0,13,10,12,54
35,44,-30,10,-15,14,28,72
5,-66,-3,40,64,22,8,-52
-16,29,-12,-11,-6,-12,-9,7
-5,-34,6,-5,-5,-6,5,15
6,14,12,-11,-4,7,14,20
-5,17,11,-44,-17,0,6,4
7,19,17,75,-4,-8,-11,-12
54,38,26,-30,-25,-18,-10,2
-116,-25,-74,-7,14,3,0,12
-3,-18,-2,-14,31,14,-2,-48
7,-7,22,-52,16,7,-2,-19
-21,45,-8,-60,-37,-10,-3,7
11,26,34,66,11,6,16,48
64,-38,24,-41,-28,-15,-2,8
-44,0,-24,48,9,1,-20,-61
-20,43,-3,-17,-5,3,-5,-9
-8,-6,4,-79,-24,-12,-5,13
-44,-40,31,127,-63,-22,-20,-26
30,20,-3,-48,100,21,10,31
41,35,-9,-53,3,-2,18,36
2,5,9,-7,-17,-9,-12,-58
3,7,2,-1,-14,-11,-30,-22
-18,-9,-6,6,-2,6,6,10
-18,-39,-9,-1,-4,9,24,102
12,15,1,-69,-41,-7,14,-8
-22,-18,-9,72,10,0,-24,-100
-41,-58,-5,-22,28,6,-17,-57
-18,29,-4,-5,-7,-5,-7,39
-2,41,0,-7,-15,1,14,40
-5,-46,-6,-9,-7,5,3,-16
-20,-55,-12,-12,-15,-13,-22,2
13,20,6,-35,-15,-3,-5,-10
11,19,-12,3,0,2,13,21
4,4,0,25,13,-2,16,21
17,16,28,53,-24,-6,-4,19
31,51,23,-68,-30,-5,-19,-27
-13,-48,-64,74,112,36,5,14
-52,-53,-8,-33,-4,-2,-10,-70
-14,2,-2,-15,-19,-10,-8,-29
-1,7,21,-15,-22,-9,-2,7
27,43,27,31,-57,-9,10,29
54,35,-7,14,82,18,18,43
1,-8,41,0,-4,-2,-1,-1
-82,-96,-40,-16,-19,-9,-15,-64
-10,-5,-8,-2,-2,1,-2,11
-22,0,3,-35,-7,-3,5,63
3,16,28,26,-37,4,18,6
22,30,42,127,26,21,34,-7
8,-53,-94,-128,36,-27,-38,-82
-3,17,37,33,1,-5,-67,-72
-13,20,-68,-14,-14,-10,-11,12
-12,-23,-5,3,-10,-1,14,47
52,6,-7,4,-4,9,23,99
-25,-10,31,8,6,7,23,75
-7,33,21,10,-4,4,24,-26
2,3,73,-33,-28,-18,-19,1
-11,-21,-113,62,38,1,-15,-122
-30,-29,13,-9,5,3,-8,15
1,12,16,-9,-7,-3,0,24
7,11,15,-8,-10,1,2,24
-6,21,25,-128,-80,-16,14,34
1,33,22,127,-4,11,55,127
57,15,-10,-128,41,2,-22,-57
-54,-62,-3,-46,-40,-21,-90,-128
-71,-28,-50,-25,-35,-14,-28,-2
-25,8,5,-7,-21,-2,13,35
11,-6,15,-19,-23,-7,15,30
12,45,70,-41,-10,2,14,24
-12,-30,-6,125,-73,-10,22,40
6,59,-6,-35,127,45,37,79
95,33,-47,-63,1,-7,-39,-74
-40,-68,2,-13,-14,-20,-41,-62
2,3,13,-3,-17,-2,-1,12
-12,26,-4,0,-13,-8,3,7
-4,-5,33,4,-8,-4,-21,-1
-1,13,-13,5,-1,0,42,18
4,19,-9,11,-17,3,16,37
25,37,23,38,22,-5,21,67
27,-26,0,-27,6,0,-1,9
-74,-37,-60,-11,-17,-17,-49,-128
-53,-52,3,5,-2,-1,-26,-12
-2,4,3,-40,-11,-9,-10,37
10,6,52,103,-128,-11,27,44
19,38,-42,31,127,51,9,25
26,21,-2,-51,-16,-6,-4,-32
-14,15,20,-25,-27,-6,-5,-15
10,-28,25,-13,-26,-6,4,24
-14,-20,-29,-5,-14,1,14,1
-20,16,8,2,-6,-3,5,14
-7,2,17,-102,-23,-16,-20,-3
24,41,40,-39,-86,-16,23,61
60,-5,-39,127,127,1,-32,-91
-94,-70,1,-39,33,9,-31,-71
-38,0,-102,-36,-16,-3,-12,-11
-6,11,13,-9,-9,8,40,39
21,1,11,1,-11,0,9,27
8,6,6,6,-10,-14,-1,34
-38,-13,3,-1,-1,4,-4,-13
-8,74,104,-128,-128,-17,42,127
99,30,-122,127,127,33,37,85
127,-95,27,-128,-22,-30,-103,-128
-128,-118,-128,-38,-47,-24,-68,-20
-14,40,47,5,-30,-5,-3,34
-2,-8,20,14,-16,-1,18,63
10,22,22,16,-6,0,17,42
11,24,8,8,1,4,19,24
13,20,-6,11,1,2,16,20
11,17,10,-125,-39,-12,2,2
-14,-14,17,127,33,-3,-11,-26
-20,2,-40,34,66,13,-5,-53
-14,-14,17,127,33,-3,-11,-26
-20,2,-40,34,66,13,-5,-53
-10,3,-16,-62,4,5,-2,-7
36,-11,6,-30,-16,-8,-10,-13
