Channel_1,Channel_2,Channel_3,Channel_4,Channel_5,Channel_6,Channel_7,Channel_8
-12,20,15,-20,-27,-7,-5,-6
45,17,5,-40,6,3,-5,-4
36,24,4,-49,-19,-5,4,36
24,-1,15,10,27,12,14,5
-21,-9,-8,25,8,-4,-8,-41
-41,18,0,-8,-9,-9,-20,-11
-20,-1,57,-44,-19,-6,-6,-2
-8,14,-32,127,-22,-5,21,40
-7,28,27,-128,28,8,2,2
69,-5,13,10,-11,-2,-52,-62
48,10,-94,11,13,-3,1,2
-128,-98,18,-23,-18,-12,22,-6
13,16,17,8,-10,7,4,17
56,35,-12,-14,19,12,0,-18
54,11,15,-53,-11,-5,24,51
-59,-18,15,0,-5,-3,-8,-31
-16,2,-7,38,-6,-10,-13,-13
-15,20,-27,-33,-12,2,1,17
-39,17,4,91,-25,4,17,39
28,-23,73,-74,44,3,42,29
126,-18,-60,24,14,-10,-26,-13
-2,0,-36,-15,-11,-9,-28,-48
5,-1,-9,-20,20,6,-13,12
38,43,22,107,2,-6,-2,-23
18,-29,-47,-69,11,-1,11,9
-50,3,1,-24,-9,-7,-19,-37
5,14,27,18,1,3,3,14
-1,16,33,-32,-13,0,5,12
-60,-4,-63,37,-41,-16,-5,-26
-3,-3,30,-19,26,4,-4,5
-2,-10,-53,66,4,4,9,16
-1,15,19,-18,0,2,4,-1
7,-13,-7,16,-6,-6,-4,1
24,18,11,-29,11,7,2,12
-56,8,14,-42,2,-6,-14,-15
7,17,28,13,-2,-5,-17,-34
17,9,27,-50,-6,1,19,16
38,14,-8,109,21,-5,-23,-53
-59,27,-9,-36,4,-9,-37,-88
-48,-90,2,-11,-1,-5,-20,-3
17,8,-4,-27,-15,-2,16,13
9,18,11,10,-26,-2,4,26
-4,0,10,53,44,9,-5,-28
-36,1,20,-84,-15,2,0,17
1,58,6,65,8,8,30,51
25,-15,-27,85,43,1,-18,21
-121,-31,-41,-72,-2,-5,-6,-65
-53,-14,34,-24,-13,-9,-28,-53
-2,-9,-64,-21,-17,-4,1,18
18,-30,19,-6,-6,-1,14,40
16,-18,-16,69,117,17,-34,-18
3,-40,-75,-33,2,4,-5,28
-12,38,3,-16,-9,3,20,47
64,-6,57,-8,-46,-15,-16,-76
-16,-32,-19,-4,4,-8,-23,-15
-11,-15,-9,1,3,4,3,14
-5,18,7,-6,-11,-2,-5,-21
-3,-1,7,11,-8,3,12,11
-7,0,-4,-10,-18,-13,-20,-2
12,13,-16,-25,5,2,14,20
1,16,34,82,-24,-8,3,30
38,-10,-39,-98,25,9,6,-4
-13,-20,20,104,16,5,-15,-19
-4,-4,18,107,15,7,47,47
84,-22,-55,-128,1,-12,-33,-19
-54,-14,14,-24,-9,-10,-33,-36
-16,16,18,-6,-11,-9,-6,8
-4,0,5,-2,-10,-3,-1,-26
-1,10,8,2,-2,5,11,14
7,14,5,34,-18,1,14,26
3,-13,0,22,-16,1,-5,-10
-8,-9,-10,26,64,17,-35,-65
3,18,35,21,10,-10,2,-2
18,-14,-30,-3,-7,-8,12,48
-55,-75,-50,-18,-4,6,-6,3
-26,18,-49,-45,-17,-6,-17,-29
-12,27,18,20,-18,-5,-5,-2
12,11,23,-24,-6,-6,-13,-4
36,59,56,-30,26,2,17,48
47,-31,0,9,-37,-1,3,10
-33,5,-6,74,77,21,-5,-52
-29,-8,-48,-23,-10,-6,15,6
-7,7,-1,-33,-22,-6,-1,14
3,-19,1,15,4,-3,5,-2
17,11,38,-12,13,7,-2,8
11,26,15,6,-6,1,5,-4
8,-7,-19,44,-18,3,-3,-26
-16,-22,4,-44,5,-14,-23,-8
-26,-16,8,40,2,-8,-13,-8
-2,13,-18,0,-6,-3,-5,5
11,11,0,0,-8,1,41,26
6,1,-3,2,-3,0,8,21
1,4,1,0,0,-3,3,6
-2,1,0,-2,0,2,2,-12
5,-12,-5,-2,1,11,18,25
6,46,24,-128,-45,-4,19,48
0,2,19,127,5,-1,-1,-40
64,-86,-28,108,79,8,-32,-58
-128,-42,-72,-98,-14,-26,-64,-73
-28,-79,4,-27,-17,-15,3,-14
8,29,20,-8,-20,-1,9,22
15,23,-2,2,-3,9,15,24
1,11,9,-27,-16,1,9,4
-2,27,0,-59,-9,2,6,10
3,8,17,105,-6,-9,17,34
10,41,27,-8,8,5,4,-7
18,-1,-64,-78,17,-4,-49,-32
7,-21,-24,-32,-22,-6,-3,-31
-31,-28,-12,9,0,5,9,-1
-33,9,47,16,-4,-2,-2,0
-33,26,23,-4,-7,-3,-5,4
1,10,52,-14,-19,-7,10,37
-9,14,-128,37,-22,-2,8,9
18,44,29,9,37,10,-1,-33
14,-35,-26,28,1,-11,-19,-72
64,-28,7,-7,-13,-9,-34,-22
33,-1,24,-1,-1,3,3,36
-58,-6,-65,-34,-12,-8,0,-5
-18,19,18,31,-7,-9,-12,-20
-6,1,-2,2,0,1,6,8
3,15,1,-48,-23,-3,13,31
17,31,21,102,39,18,24,27
22,9,-21,-44,13,5,-32,-23
-120,-39,-1,-31,2,-5,-21,-65
-8,-23,29,34,-7,-5,9,2
-37,18,-31,-32,-37,-14,2,33
23,-16,-22,35,-7,0,1,27
37,24,8,34,69,1,-28,-78
26,15,12,-13,-5,-3,-14,-25
-30,55,45,-83,-41,-6,6,31
11,-74,-63,102,-7,-1,2,8
-1,-36,1,-54,58,19,4,-3
-24,-2,-43,-82,-29,-24,-17,6
-26,1,-25,124,-13,-5,2,-20
-5,-8,-4,-84,0,5,11,10
17,11,13,57,28,8,10,20
9,9,17,-9,2,2,8,21
-12,-31,19,-9,-13,3,6,-4
-36,-4,-41,-54,-48,-15,-28,-38
19,-13,-9,75,29,-2,-7,3
13,-9,-4,-21,0,-5,-20,-36
-25,-20,-22,-4,-3,5,-11,-2
-7,8,0,-3,-5,-2,14,2
-3,12,11,7,1,11,38,71
9,10,9,2,-6,-12,-7,-3
68,29,7,-6,-21,-14,-67,-128
9,-18,3,17,17,-5,-14,18
-5,-51,-20,-41,-12,-4,8,18
28,-46,-25,27,8,3,18,30
9,-39,-15,-12,7,8,8,6
-114,16,31,-1,0,3,4,-1
-7,33,4,21,7,2,2,4
9,16,5,-53,-25,-6,1,-1
6,5,0,77,-15,-2,-16,-6
-1,10,10,101,21,-1,22,22
26,15,-15,-109,20,6,-1,18
-16,-24,31,0,-31,-7,-4,-20
30,11,21,-60,-36,-25,-34,-58
-45,7,-63,42,21,-2,-6,-8
-8,32,30,-35,-11,1,1,9
17,50,18,31,-11,0,5,25
29,-128,-35,-32,5,7,13,25
-10,-28,-37,20,-10,-10,-17,-57
3,31,-15,22,-5,-1,1,-1
-10,23,34,8,6,2,3,11
1,24,30,-12,-1,0,3,14
-3,3,15,-78,-46,-13,-6,-3
9,-13,-28,106,21,7,19,23
-6,20,4,-79,48,18,-5,-5
-56,-11,12,-18,-2,-10,-46,-29
56,-28,-17,-17,-27,-14,37,8
20,15,25,-4,-11,-7,-8,-57
-20,-13,-2,9,-10,0,8,31
0,-16,-29,-36,-42,-11,-13,-4
11,-16,0,88,20,0,-12,-30
-13,-4,24,-52,38,13,3,14
13,30,30,43,-2,1,2,14
7,-7,-12,-7,-16,2,19,49
-13,-14,-18,-16,-7,-1,16,14
-30,58,9,33,2,-12,-23,-70
37,-47,-22,-53,-22,-18,-26,8
-78,-57,4,31,-15,-4,-2,-14
-6,-52,-15,10,17,9,12,16
-11,35,33,5,0,7,2,-7
-5,15,17,11,-22,-1,-1,-16
25,5,3,4,18,2,-23,-8
33,13,-37,-128,-34,-10,35,10
-12,3,-1,106,48,5,21,22
0,9,-1,-23,-10,8,2,-4
-3,28,22,49,0,4,7,21
-15,-67,-89,18,4,-4,2,36
31,24,19,2,21,0,-33,-72
-23,-25,8,-15,-13,-14,-34,-31
-3,10,17,-12,-12,-2,-6,-34
-24,3,17,-12,-18,-4,12,27
22,28,17,-1,-20,-1,19,44
54,25,-12,-4,16,-7,-19,-16
-39,4,16,-6,-2,0,-3,-5
4,-48,-34,-6,6,5,7,17
-24,18,27,-23,-1,6,10,17
-10,-1,-23,117,-2,-6,-6,1
-7,15,-19,-119,0,1,-34,-6
-9,-25,7,-73,-56,-7,-2,-12
2,-12,-4,122,66,-1,31,30
1,19,-7,-25,-4,-6,-4,-43
-11,-3,-51,-3,-8,-2,-13,14
-2,-24,-4,-4,-9,-4,-10,-23
-30,-27,9,-25,-31,-6,4,1
-27,5,7,-4,13,0,0,14
17,26,21,-28,-27,5,17,37
21,-14,-5,77,52,10,11,3
13,8,-41,50,7,-10,-21,-25
29,59,-3,-4,9,1,-4,-5
-24,-97,-7,-3,-15,-1,3,0
-10,-30,25,-90,-18,-5,4,-1
6,22,34,84,7,-5,0,15
-99,9,23,-53,-50,-6,9,-2
14,-17,80,94,115,23,-9,-19
20,22,-128,-25,0,-5,-17,-17
9,-9,-9,-20,-26,-11,-11,-19
-4,-5,34,-9,-16,-6,-1,-9
18,-19,38,8,-5,-1,8,10
-17,7,-49,-53,-12,-1,11,23
-8,7,13,49,-4,3,-1,33
14,-6,-14,17,5,2,-7,-13
-11,16,37,4,-5,-21,25,-23
46,3,18,-1,1,-5,-17,7
-8,-8,-60,-5,5,6,-21,-9
6,5,5,-10,-7,-4,-5,-17
-40,-11,-14,-23,-18,-9,-8,-2
20,8,40,-2,12,8,15,10
-81,-11,-35,36,20,4,13,2
24,-13,-13,-24,9,1,-10,4
24,35,26,-32,-43,-4,15,66
58,17,-18,96,38,22,25,-2
-47,-75,-30,-26,6,-15,-39,-67
-31,53,24,-35,-13,-16,-36,-61
-18,6,37,-31,-43,-12,3,8
1,43,-67,-76,-23,-5,5,12
-2,13,18,127,53,9,11,21
25,-8,-39,-80,28,18,14,35
-49,-60,-6,-50,-33,-5,-20,-18
-7,-10,20,74,-14,-8,-11,-17
-14,-18,-52,-44,22,3,35,23
18,72,66,-15,-10,-3,-17,-47
-51,2,-9,-10,-10,-6,-13,7
35,28,20,4,-14,1,4,19
-12,-26,-40,-42,-51,-13,-14,2
12,21,30,-7,8,-10,-10,-16
18,-21,-30,28,55,12,-4,-22
-63,-54,-34,-10,-14,-8,-26,-32
-20,3,16,-32,-14,-7,-1,23
4,13,24,-5,-13,-10,-4,-35
-10,9,-9,-1,-5,0,11,23
-13,-21,9,-1,-4,6,6,25
15,23,12,11,-39,-1,41,34
40,-5,-2,11,43,-6,-11,-49
-40,-10,-19,-12,8,11,5,-14
-31,52,42,-41,-16,-7,-19,-19
12,24,9,13,1,-4,1,20
37,15,15,26,-9,-13,2,31
32,-37,7,35,-3,5,7,6
-47,-34,-20,-107,-50,-9,-15,-65
-5,4,-9,127,54,26,5,3
27,-4,-5,-60,32,1,-6,23
11,33,19,2,-22,-8,1,12
12,29,35,39,9,-8,1,19
48,-64,-16,-86,-4,6,8,20
-100,-27,-120,37,-4,0,4,-4
-15,-28,27,-20,-26,-4,-7,-6
-59,32,21,33,49,13,-3,6
5,-8,-4,-47,-15,-9,-5,4
-2,11,24,101,-47,-12,2,-26
11,33,3,-39,43,17,19,21
8,6,-7,-16,-9,-9,-5,9
6,1,11,-7,-12,-10,-24,-23
-19,-24,3,-7,-10,-6,-23,-80
46,-33,-28,5,0,-1,-12,41
-88,-48,2,-4,-12,-18,49,-12
61,36,11,0,-7,-6,-13,-21
-2,10,-24,-49,-9,1,-8,10
1,18,7,54,-13,8,16,27
6,20,-6,0,43,19,34,45
-5,37,9,-21,0,-17,-23,-11
20,-35,6,-5,-9,-11,-30,-67
-52,-5,-5,-128,-50,-14,-14,-42
40,5,-10,127,30,7,10,10
12,-11,-17,-18,44,17,14,-3
11,-4,31,-9,-5,-2,-5,2
-9,14,-21,-16,-20,-7,2,13
-10,11,-16,6,-58,-13,10,40
-14,31,6,110,42,18,-2,13
59,6,65,-67,38,16,3,-28
50,-67,-68,-40,-12,-10,-2,-36
-63,-52,-21,-16,-24,-19,-35,-41
-27,6,8,3,-5,3,-2,7
-19,20,24,10,-4,4,5,12
27,60,18,-37,-26,7,20,51
72,-29,-47,28,20,14,43,94
0,12,21,22,4,-12,-28,-68
-5,-20,-12,-27,-22,-24,-48,-61
-47,-53,-10,-27,14,-3,-9,-10
-2,31,6,5,-10,-3,8,9
-5,15,2,50,23,15,21,31
23,-14,29,12,12,8,16,14
-34,-8,-25,-60,-11,-5,-11,-16
27,0,5,-7,-20,3,14,28
5,10,-1,-23,13,6,-3,15
-21,-10,-7,-3,-1,-12,28,-50
-4,-20,2,26,-4,-9,-30,-37
-14,19,100,-29,-4,-9,-12,-11
16,-19,-28,-11,-13,-4,9,10
6,-2,-41,-80,-16,0,11,54
-56,8,15,22,17,16,24,46
42,78,9,69,29,6,-1,-56
-40,-128,-9,3,3,0,-20,-29
-9,29,-2,-10,-7,-7,5,8
9,3,12,-29,-9,-4,5,12
-9,-7,47,-54,-77,-16,10,17
-9,-16,54,127,33,6,0,20
24,35,-113,-67,64,23,3,-1
35,41,-5,-40,-16,-11,-17,-17
-31,-73,13,-51,-21,-8,0,11
12,-7,18,49,-20,5,20,39
2,8,-12,0,4,1,-7,-19
6,6,22,-11,-8,-4,-25,-60
6,25,21,-6,4,-2,-2,3
6,47,42,-30,-126,-29,7,26
3,-25,-42,127,127,31,28,43
37,-40,-18,-40,21,18,-6,-40
-107,14,-2,-42,-10,-5,-37,-28
-16,-31,-18,-21,-20,-8,-5,26
17,-59,-36,-1,-28,-13,23,18
23,32,10,-5,2,-2,4,-27
17,-5,8,-4,-10,-12,-32,-21
-104,-23,10,-2,-3,-1,-11,-16
-17,17,10,8,1,5,3,11
-9,14,-17,5,5,1,1,25
35,25,27,-1,1,-1,7,5
58,-1,10,-3,-5,1,0,-34
-56,-28,-13,-1,0,-5,-14,-2
-52,-29,46,-6,-14,-3,5,8
7,58,-56,20,7,-1,10,33
58,25,9,-48,12,2,-10,-31
-16,-46,-33,48,9,-6,-23,-36
0,24,46,0,-1,2,1,35
-19,-7,12,-19,-13,-2,6,-45
4,26,32,19,-67,-13,-2,3
17,14,2,47,74,32,61,36
17,28,13,-31,43,17,-9,6
8,-51,18,-23,-18,-17,-24,-14
5,1,-27,-25,-20,-11,-19,-15
-40,9,-87,-108,-73,-12,9,13
30,5,10,127,38,12,47,50
-14,7,17,-128,19,10,-25,-43
-64,-46,7,-18,-10,-1,-23,-57
-4,24,45,-5,-39,-17,-4,14
1,-7,-8,-25,-28,-1,16,39
-5,9,-7,122,66,9,7,8
8,52,0,6,3,-12,-26,-50
-72,-19,1,-35,-9,-6,-9,9
-24,-82,-28,-17,-15,-5,1,-30
-3,-3,15,-36,-12,1,2,28
1,13,-6,9,-5,-6,6,-11
10,6,13,-8,-6,4,2,-19
1,11,-6,2,-1,-10,0,36
15,32,34,10,7,4,12,14
8,-30,-89,-28,-6,0,-11,-55
-10,-28,8,23,5,-7,-20,-4
-20,4,23,19,-21,-7,-13,-23
-18,-12,11,-10,-15,-3,4,6
2,17,-84,18,61,17,-3,-4
8,-1,-16,-56,-12,-1,16,8
2,0,31,5,-36,-14,-2,9
-5,-19,41,-3,-11,-5,-20,-15
-26,17,-76,-120,-12,-4,1,22
18,15,-11,127,46,7,-1,5
36,-67,-28,-44,3,-4,-2,-25
-87,-37,15,-64,-23,-4,-19,-40
-39,4,12,110,-32,-10,-8,-8
9,19,17,-101,29,14,9,2
13,25,-37,-16,-4,3,4,24
3,20,36,2,-15,0,12,23
31,7,16,-7,8,7,-8,1
-32,-4,-40,-4,-3,-3,25,2
-9,-18,-15,-4,-3,1,-16,11
29,15,0,0,3,-7,-3,-20
-21,-3,3,-5,-5,-10,-16,-37
19,12,-10,2,-3,-4,-4,12
0,9,20,-56,-16,7,21,15
24,-22,4,66,17,9,19,62
-119,-22,30,36,-1,-10,-19,-29
-1,49,-36,-28,0,-3,-24,-107
-3,-79,-22,-52,-19,-1,32,0
32,4,0,5,36,3,4,20
-9,14,-3,-5,-8,-1,6,15
0,-9,-19,-16,-7,1,5,10
-1,8,15,17,-9,-2,1,6
-3,5,1,6,0,-3,-4,4
-4,11,11,-11,-16,0,9,15
-15,-10,-6,-94,-55,-8,17,43
27,31,51,84,-18,1,5,5
74,29,53,-18,127,15,-8,-68
36,-65,-128,-93,47,18,-20,-26
-64,-43,-68,-53,-34,-11,-12,-5
-19,46,20,-7,-35,-10,3,9
0,7,33,-4,-26,-10,5,11
14,-7,7,4,-14,-5,4,8
7,11,4,5,-9,1,4,8
5,8,8,8,-6,0,0,2
4,9,1,-6,-14,-8,-3,-1
-2,-6,-9,20,10,6,-4,9
-3,9,1,9,22,16,44,52
-9,26,13,8,1,6,-4,-23
6,-13,-9,9,-19,-9,-22,-60
-36,-29,-14,-97,-37,-19,-23,-21
16,10,6,127,28,4,-1,33
50,67,52,-7,33,12,1,7
24,-44,-99,-19,-10,-6,-10,-20
13,-121,-45,-28,-21,-12,-20,-17
-31,34,-17,-20,-15,-5,-16,-27
-16,-24,21,5,-2,-5,6,28
-2,12,11,-1,-4,1,9,-10
8,20,5,-5,-4,1,4,10
-8,9,5,-6,-9,-3,-18,5
10,28,3,-24,-28,8,41,60
43,12,22,39,12,-2,6,9
12,-29,-26,-20,56,-1,-26,-63
-50,-74,-5,-9,-9,-7,-28,-30
-6,5,-19,-7,-10,-1,3,9
-1,21,16,-4,-10,2,6,13
-2,-15,16,-3,-7,2,7,7
0,0,-15,-3,-3,5,1,4
2,9,0,-128,-57,-18,-5,1
-9,-19,10,127,-21,-15,-2,-3
3,63,82,-10,87,36,31,50
-20,11,10,-68,-1,13,13,20
116,4,-68,-55,-41,0,4,-42
-33,-46,38,-10,-2,-21,-43,-21
-61,-14,-6,59,-5,-18,-54,-80
-52,-40,25,-63,-17,-8,-2,-26
3,19,-7,-10,-15,-13,-1,11
-8,10,2,-3,-6,2,9,20
4,13,21,5,3,3,10,17
8,17,22,4,-4,-1,4,14
8,10,-13,2,0,3,6,7
3,6,-4,34,22,9,7,6
3,-9,-16,-3,-2,3,3,4
-35,-10,-8,-8,3,-2,-16,-11
-35,72,61,25,-68,-6,20,16
83,-4,-46,28,95,15,54,44
95,-30,-101,-35,10,6,-35,-41
-128,-67,-50,-22,-32,-30,-57,-118
-21,-34,-7,-2,-14,-1,-4,12
1,9,23,-1,-7,0,10,35
2,33,24,-5,-9,2,13,24
17,26,-8,-23,-32,-15,-12,-41
9,13,25,8,10,-5,-6,-12
-21,-6,5,127,-9,-2,3,7
14,-5,-49,-128,42,19,1,4
42,7,-26,-46,-14,-10,-5,13
-17,-13,22,84,11,4,6,15
12,5,-39,-17,-1,7,11,9
-7,46,58,-6,-10,-4,-11,-3
-20,2,7,-7,-11,-3,-9,-22
22,-31,36,-16,-32,-2,20,47
-5,3,-26,0,25,9,6,8
15,17,11,30,21,-1,-36,-101
-23,-37,7,-40,-20,-12,-10,0
-7,-1,57,4,7,2,8,-3
-5,-30,-84,6,15,-2,-25,-4
29,26,14,10,-1,4,18,38
5,-33,-27,-20,-7,3,39,47
4,-2,12,-26,-7,0,-21,-48
-24,-27,-1,26,0,3,0,-12
6,-18,-25,3,-12,-11,11,33
68,34,18,-6,-1,-11,-12,3
-32,-14,-13,-7,-9,-4,-15,-44
-6,6,5,4,3,1,-12,-4
2,-9,5,-2,-1,2,2,7
8,-6,1,1,3,10,17,17
-11,24,5,-40,-6,3,9,54
-1,27,7,-3,-30,1,37,30
60,3,82,127,-30,-5,-20,-65
1,-34,-105,2,127,18,-32,-25
-50,-48,32,-51,-19,-19,-28,-21
-25,-22,9,-11,-15,-4,-4,12
-9,9,-28,-14,-18,1,3,-34
5,8,8,-76,-33,-9,4,14
0,33,15,51,-26,-8,3,7
8,15,33,25,15,4,6,12
1,-7,-45,70,28,4,1,2
-24,6,53,38,24,5,2,1
13,34,-19,-59,14,11,9,12
20,-33,15,-24,-26,-7,-7,-6
21,-61,-17,5,5,-2,-4,-2
-68,-7,-18,-17,-11,-12,-9,-9
20,56,-10,0,-6,4,7,13
12,16,13,4,-3,3,9,9
-2,-69,30,-4,-8,-9,-4,-6
41,22,2,1,2,-14,-14,-49
-40,-14,-4,-2,-2,-6,-13,-21
-5,21,1,0,1,-2,14,35
15,33,17,-10,-3,15,1,46
-38,3,11,10,-10,10,39,10
30,-8,-23,2,26,-13,-37,-81
2,-42,20,-31,-2,-11,-32,-63
-32,11,-38,-1,-6,-2,0,12
-10,-6,-37,-12,-9,4,9,13
33,17,19,-12,-10,1,5,15
53,23,7,-50,-19,-12,0,25
-53,-11,1,57,-33,-7,-8,-6
-13,-15,3,25,42,5,1,-12
5,4,-8,-85,-10,2,-3,1
14,16,24,72,0,3,6,14
-13,-31,-38,30,-9,-1,11,10
4,26,1,-22,11,17,18,12
3,-111,-80,-16,13,-1,-17,-32
-72,-5,-1,-29,-19,-13,-32,-59
0,20,16,2,-20,-12,-9,9
22,10,19,2,-18,-3,12,17
3,-9,11,17,-15,-6,3,7
-9,-15,-24,-82,-5,1,16,34
-16,21,23,62,-25,9,15,18
52,22,-1,33,108,26,-7,-10
83,19,15,-12,-5,-16,-41,-6
-69,-37,26,-8,-13,-9,-24,-46
-16,-20,-79,-20,-18,-5,41,5
-14,17,15,-13,-13,1,1,6
-9,17,12,23,1,15,30,59
19,20,1,-12,6,0,13,4
-10,26,16,-17,0,-10,-39,-72
-19,-80,-2,-5,-7,-12,-28,-15
-14,12,3,2,-2,-6,-1,7
-7,27,6,6,0,0,6,11
27,30,19,7,2,2,3,11
20,-30,-70,-10,-1,7,10,11
-6,-4,-35,-9,-3,1,0,1
-3,28,53,-128,-72,-20,-10,-7
-12,8,7,127,48,22,15,69
17,-3,-27,-75,36,12,87,52
79,-26,-30,7,6,-14,-43,-114
-24,-20,26,-97,-20,-17,-44,-56
-46,5,10,42,-10,-10,-17,9
6,21,14,-42,-63,-12,4,22
10,3,-22,-4,53,15,15,20
-3,25,25,127,16,2,6,10
8,4,42,-29,-13,0,7,18
28,33,31,9,15,9,0,28
25,-8,-57,-4,-5,3,5,-6
-9,-11,-21,-8,-9,-7,-11,-35
-19,-41,-7,-7,-27,-10,-10,-6
3,19,34,40,4,3,2,6
-5,-19,-36,42,21,3,12,14
-42,-10,6,-45,5,3,11,11
-12,13,15,-3,-6,-5,-11,-6
70,47,-5,3,-5,-9,-15,-1
39,3,2,6,-2,-1,-26,34
-73,-51,-2,-7,-11,-9,22,-14
-63,-31,0,-11,-14,-4,10,-80
-2,-7,-6,-20,-6,-9,-26,-68
48,47,15,63,14,1,-25,15
23,-7,-3,6,11,2,4,41
-1,-21,-1,-16,-8,-6,6,0
-29,0,-9,-8,-3,5,0,11
-20,10,6,-7,-4,4,15,19
-2,24,36,-76,-101,-24,-4,9
8,-49,-74,127,96,3,-12,-38
-21,25,-7,-128,58,4,-13,-12
-58,-68,-47,-35,-14,-6,-4,-12
6,-17,49,-8,-12,1,0,2
12,1,-78,-6,-13,-2,6,7
2,15,18,1,-22,-1,3,3
0,4,27,-14,-20,-5,-9,-4
4,8,26,41,18,1,-1,-2
0,-9,-18,51,11,5,4,9
-4,24,23,31,-15,-4,1,-4
2,30,10,3,2,5,-11,-12
12,-24,4,110,27,2,3,45
-11,31,-6,-48,6,10,18,0
-4,-10,-25,-27,-3,-3,13,7
-2,-53,-44,-40,-23,-28,-26,-72
-31,0,-35,-9,-9,-6,-28,-45
-15,-16,25,-1,-10,-9,-19,15
-73,2,18,7,-1,8,7,21
-7,16,6,-20,-15,-4,8,13
-3,20,-3,3,17,3,13,16
11,-4,9,18,8,1,-1,-2
80,33,13,0,3,4,-5,10
-27,16,-20,-3,-1,-3,1,5
10,8,6,-9,-6,1,-8,-23
-1,-20,4,18,-20,-3,35,38
-2,8,31,-12,11,1,-2,0
-37,-24,-9,-16,-3,2,-23,-63
-8,17,3,-62,-43,-11,-6,-26
-4,0,-1,76,-10,-14,32,36
-6,-8,-30,10,55,12,9,-12
48,21,23,-24,3,-4,-17,25
11,36,34,-81,-43,-12,-16,-23
-11,-14,-49,97,14,4,1,-2
-12,-2,43,-22,7,3,7,11
-3,45,-44,-24,3,3,5,9
6,-79,-5,-76,-30,-6,2,17
-45,7,3,27,-24,-1,6,7
-4,-55,35,29,36,8,-6,-31
1,4,-23,-15,-5,-3,-8,-17
-31,7,-1,-10,-7,-7,-10,-9
27,10,13,-26,-26,-16,-5,3
-13,8,34,23,-32,-5,4,4
6,20,-13,14,59,18,6,10
-8,32,-7,-11,8,13,18,22
5,31,-17,-59,-35,3,3,46
11,-35,7,102,14,-12,-22,-36
86,-52,-29,-84,-10,-25,-53,-78
-91,1,8,-12,-4,0,-19,-36
-29,22,12,-3,-4,1,19,14
0,18,18,-3,-7,-2,6,18
8,22,6,6,-6,-3,6,24
1,14,6,-7,-9,5,14,41
-8,38,26,-4,11,3,4,-14
22,-19,-69,11,14,0,-23,-31
-9,-56,-4,-43,-13,-6,-16,-3
-1,-11,9,34,1,-3,-6,5
-12,25,26,-22,-13,-9,10,-5
-15,2,22,11,-22,-11,-5,1
17,16,-31,-34,19,6,6,7
-18,-14,5,-43,-40,-6,0,-1
-21,7,42,127,28,12,3,8
10,36,-69,-84,53,23,15,16
67,35,77,-33,-14,-4,-3,-5
-10,-17,-97,-31,-25,-14,-5,6
-24,-27,41,19,-33,-15,-12,-19
-52,-27,-48,-5,12,7,-1,-1
-3,-1,17,50,-2,9,9,29
0,19,-45,-7,20,8,3,-1
7,8,7,-25,-6,1,-13,-51
3,-4,31,23,-1,-5,-11,1
32,30,-3,33,-7,-5,-2,-10
18,28,25,-13,-1,-1,26,37
8,-33,-21,-128,-61,-23,-4,12
-41,-87,-90,127,49,5,-16,-51
17,23,-56,17,26,-5,-26,-24
17,-2,7,-9,-1,6,-23,5
-1,44,9,-14,-9,3,13,19
10,-33,41,-8,-18,1,17,34
-6,34,-13,35,-19,-14,-1,26
-35,-39,-7,-63,15,-10,-26,-45
-62,-15,3,-14,2,1,-7,-15
8,18,-7,-2,-4,-1,2,7
36,17,26,4,-3,2,3,10
-2,-22,-9,6,-14,-2,4,7
-42,0,37,-40,-37,-12,32,31
-1,9,-57,18,65,18,2,5
85,9,2,5,22,-1,-4,-37
-22,-95,-122,25,-6,-8,-15,-5
-17,9,-5,-7,-21,-9,-13,4
-32,16,13,-8,-2,-2,-5,-31
-1,22,28,12,-20,-5,-2,0
8,7,27,14,-16,-4,2,6
-10,-12,-41,-48,13,13,21,22
-5,-1,11,88,41,11,-3,12
29,36,37,-36,-6,-3,-10,-18
42,-6,-26,-45,-29,-19,-25,3
-15,7,-15,72,2,-3,-5,-17
-22,-29,-1,-32,2,2,3,22
8,-26,-6,-17,-23,-5,1,-1
25,-8,-27,3,-10,-9,-16,-18
-26,-1,-14,-4,6,1,0,-17
-8,22,43,-16,16,8,-5,-6
-15,28,-43,-5,1,4,-2,21
4,7,2,8,2,8,31,2
-8,-70,40,-18,-16,-13,-17,-26
52,42,-47,2,-3,-8,-23,-4
-23,-11,-8,12,1,2,2,-42
3,-11,20,-113,-42,-11,0,4
-48,5,-19,127,54,10,4,17
-8,-32,21,17,13,2,-4,-5
10,44,6,-4,-6,3,42,38
25,-16,-15,-95,-30,-8,-1,7
14,8,11,25,-19,-11,-25,-35
-20,15,15,90,40,8,-14,-1
-8,-19,33,-60,36,12,3,5
-12,-36,-62,-39,-14,-1,-7,-12
24,15,-12,-3,-23,-5,-5,1
-15,6,14,-109,-27,-8,-4,-23
-9,2,-18,127,40,-1,1,-3
-2,10,18,-10,8,3,4,3
-3,-8,9,-6,-11,-4,0,4
0,3,-18,-55,-83,-16,0,9
1,24,39,121,114,32,22,38
21,16,-5,1,8,0,-30,-9
26,-57,-90,-4,3,-3,-1,-45
-77,-39,-4,-30,-23,-13,-20,-51
3,18,4,-6,-5,-6,-5,-12
-42,-4,26,41,-7,1,0,15
0,0,2,-68,-9,0,-27,-16
2,-32,-3,3,-1,-8,3,11
-23,-6,11,4,1,10,20,30
12,26,7,9,-3,-6,16,18
83,1,0,12,-1,0,-10,-29
-50,-53,-38,-14,12,2,-36,-44
-37,-21,8,1,-1,-2,2,-2
-5,9,2,-1,-5,8,6,10
-26,13,28,-73,-51,-9,-7,19
-1,-8,-3,39,31,1,26,13
59,-3,-25,8,30,0,-11,-22
-36,-24,-9,6,-22,-8,-6,10
-25,-17,-20,28,-20,-10,-17,-30
7,27,56,16,6,-6,-5,-10
-1,1,-39,-56,13,3,3,13
4,6,-19,-26,-14,-1,1,10
-75,-66,6,-3,-54,-8,-1,16
9,-11,-11,15,74,14,10,35
-5,16,6,25,0,3,1,-9
0,44,5,8,-5,1,-10,-68
29,-3,29,-5,-11,-6,-4,-2
-4,-18,7,-53,-39,-18,-18,-14
-27,-55,-65,87,7,-1,-6,-4
-7,-16,17,46,29,10,7,12
-8,26,-25,-7,-4,3,5,-4
28,34,54,-8,-7,-1,-11,15
18,-18,-29,-37,1,4,27,42
19,53,47,-1,-34,-13,2,16
-19,-31,-64,-18,30,-2,5,-66
-59,-73,17,3,6,-7,-46,-63
-1,-28,5,-3,-7,-6,-9,-3
-5,8,-35,0,-9,0,4,16
22,26,27,4,1,4,11,21
-51,-2,-56,-38,-26,-8,15,46
61,-11,8,20,1,0,8,38
57,-1,30,46,23,2,-14,-65
-10,-31,2,2,-3,1,-18,-49
-5,13,-29,4,0,0,-4,5
-5,14,29,-20,-8,-5,7,10
-18,-7,-2,-35,-20,-7,4,6
-18,-4,6,2,-5,-2,3,0
5,13,28,68,-65,-10,9,25
3,-19,-22,4,126,35,2,18
-19,-13,-7,-27,-2,2,9,-15
18,49,19,1,-7,-12,-17,-9
0,-54,-52,-11,-14,-4,1,7
9,55,-10,3,-15,3,9,35
-11,27,50,6,0,2,-1,-15
-14,-90,-48,-5,-5,-15,-24,-63
-39,-11,-13,-8,-15,-14,-16,-2
0,10,9,-32,-35,-8,-3,5
-7,24,46,101,50,12,1,3
18,36,-4,-18,38,12,-3,8
49,-13,-1,-10,-3,-3,31,22
25,22,55,-8,-4,3,-1,-1
-16,-5,4,-5,-7,2,0,-28
-19,25,-5,-78,-31,-12,4,31
-11,0,-21,126,9,4,4,-25
-13,-65,9,-44,16,-6,-13,-5
18,-19,-2,28,-15,-5,-3,11
-3,10,-6,-40,-10,-7,21,3
31,18,21,-9,-1,5,-28,-22
-45,3,-24,-5,17,-2,26,30
41,32,-16,-8,-9,-13,-16,-14
-35,-66,27,0,-4,0,-2,0
2,-2,23,-6,-8,0,6,28
-22,-25,-7,-38,-25,-10,-3,-23
0,-26,-31,19,27,5,-14,-51
9,-4,3,-23,10,5,-1,8
-15,8,37,-63,-60,-22,5,19
-12,-9,-10,127,52,16,6,21
-8,-9,15,-99,36,21,-7,1
2,0,-17,-26,-12,-5,-7,-45
15,13,6,-14,-17,-6,1,9
24,-23,-6,-7,-22,-8,5,16
-5,-1,22,-86,-20,-7,-4,2
-18,10,51,17,-21,-6,0,-1
13,42,-33,108,38,17,44,25
18,-16,-13,-49,5,-2,-7,7
12,-12,-33,-23,-13,-13,-17,-19
-84,-40,-10,-16,-11,-9,-12,-9
0,17,-5,6,-15,2,13,27
30,67,9,-9,4,5,6,7
-44,-26,47,-4,-5,-7,-15,-48
-14,-111,-12,16,-15,-9,-37,-25
-15,4,-16,-38,-1,11,27,58
14,23,36,35,21,13,3,-5
16,-15,-14,-29,-4,-20,-25,-55
11,-13,-7,-2,1,-5,-6,2
-6,11,9,0,-2,1,5,6
-3,16,2,-1,-8,-4,-1,10
0,9,-1,-7,-9,2,6,19
6,41,16,-105,-53,-7,-7,-14
-22,-26,5,71,23,17,14,13
32,-29,5,127,34,-15,-21,-16
-84,-58,2,-23,31,9,-3,6
-23,-7,-67,-55,-20,-6,-5,-4
-11,20,-4,-49,-16,-4,0,-8
-1,11,18,-16,-28,-7,1,2
6,12,5,60,4,2,4,-1
5,10,-33,-60,4,2,4,5
-8,20,60,-1,-26,-3,0,8
-3,7,20,57,11,5,10,27
22,18,-76,-79,18,1,6,-25
3,-59,5,19,-3,-9,-19,-44
-19,-81,-6,-13,-17,-15,-13,2
-1,25,14,-5,-8,-3,-2,0
-9,-2,25,34,-21,-4,-2,4
-17,3,-20,-7,8,2,15,18
19,21,-24,-11,-1,-9,23,15
50,1,3,-3,-8,-5,-3,44
-47,18,-1,-4,1,3,-13,9
-19,-35,2,-3,0,-1,2,-42
-88,-51,-42,-5,-6,-6,-11,-73
-1,23,6,-3,-5,-7,-26,-38
19,17,16,-2,0,0,-1,14
11,26,28,4,-2,-2,4,14
3,15,-8,-49,-29,-3,5,13
-19,-2,-2,-34,-59,-16,7,19
10,22,26,104,103,23,15,12
22,4,-1,-24,34,20,18,7
28,5,-27,2,-14,4,-3,1
-47,-87,-100,-31,-23,-21,-23,-19
-23,9,9,63,-2,-7,-2,5
-2,29,10,1,-12,1,-2,-16
-12,24,53,-91,-67,-19,-2,-8
-26,-6,20,109,-6,-1,-1,-6
61,18,-12,-70,102,24,2,24
14,20,4,-50,2,8,0,8
-13,-25,-26,-29,-23,-9,-5,-4
-26,13,-13,-11,-20,-6,9,28
-8,-11,30,-2,-16,3,-22,-1
-11,15,-22,7,-9,-9,10,-12
22,2,5,9,-3,-7,-13,-51
10,7,9,6,-2,-4,-12,-23
37,7,3,8,3,6,10,20
-72,-35,1,6,-10,-4,-1,8
18,-9,-19,-4,4,1,-8,12
30,18,69,11,7,0,-8,16
-24,-7,-34,0,-4,-13,-3,-24
-18,-2,-21,-9,0,3,5,7
7,36,-12,2,3,11,16,26
14,-53,-31,-2,0,3,-7,4
5,-1,16,-39,-25,-12,-39,-17
61,-27,1,32,30,-7,-11,-2
-72,-18,-1,60,20,2,32,-1
-16,10,19,-18,-2,4,1,-17
-1,27,-5,-38,-15,-4,-2,-1
21,21,-1,-83,-9,-2,-2,-14
-2,-27,3,127,29,-2,-4,5
6,-18,12,-27,-30,-4,1,8
8,11,-12,109,34,8,5,12
6,21,18,-88,-5,4,4,16
0,27,-10,-27,-27,-13,-4,15
-10,-33,-10,-30,-41,-11,-9,-49
-23,-18,-24,40,18,0,-5,-7
-1,2,20,6,11,3,2,2
3,7,-10,-65,-13,-3,-7,-3
-2,2,10,58,-12,-3,-2,8
2,5,-11,44,21,8,12,4
6,23,-38,-69,0,-3,10,11
-28,17,-8,-23,-16,-9,-19,-23
33,-47,-9,-7,-5,-3,-13,13
10,22,11,16,1,1,7,28
5,5,5,2,-19,-8,-39,-58
-49,1,10,15,6,-3,-1,-36
-35,-19,6,-1,6,-3,-11,-7
1,0,5,13,-16,-10,-4,24
-4,26,29,37,3,6,13,-7
15,-9,-46,-26,1,-1,-6,-3
30,5,6,-24,0,4,-2,10
-3,9,19,-1,-4,-4,-8,7
-5,-1,-9,3,-5,-4,1,0
-1,12,7,-38,-11,-2,-2,9
-24,18,42,-68,-118,-16,38,25
11,1,68,127,127,42,18,-22
62,-20,-103,-114,2,-3,-13,2
-81,-43,-52,-37,-18,-1,-14,-28
-39,-35,17,-22,-18,-9,-17,-43
6,24,42,8,-35,-11,2,12
0,-30,7,7,29,11,6,22
-7,20,-22,3,1,-1,0,-13
2,17,-2,6,-4,-1,-1,-4
10,17,17,-24,-24,-9,1,16
-26,7,-8,55,16,6,16,13
27,2,13,-16,-2,0,12,15
-13,39,49,41,10,3,7,-16
-33,-30,-116,10,2,-9,-28,-27
9,-44,0,-47,-46,-23,-18,5
2,-3,-1,70,30,1,-7,-38
-16,-2,-17,-36,2,3,4,8
-2,-13,29,-9,-11,-4,-18,-3
-8,17,4,-2,-6,2,10,7
14,28,28,-4,-8,4,25,47
-1,-12,-31,5,-5,-11,7,19
21,13,12,2,8,-4,-28,-45
-13,22,-5,1,1,1,-22,-49
-20,-30,4,2,0,1,3,4
0,14,15,-2,1,6,-7,7
-1,-7,-2,-11,-13,-3,30,29
10,-8,7,-22,-58,-22,-3,1
-25,31,15,39,76,20,2,-20
5,16,8,56,-22,-4,-11,-1
50,-38,-36,-4,52,9,4,1
-1,-7,-22,-31,-10,-6,-4,-6
-47,-68,0,-19,-19,-4,-7,-7
-2,16,3,-11,-8,4,2,2
-8,0,-3,-8,-10,-2,-2,3
-10,-7,26,33,-83,-26,-4,-2
-5,-12,-6,37,119,28,14,4
9,26,60,-40,-9,4,0,1
20,37,-22,-12,-7,-4,0,34
-34,-26,-42,4,-10,-1,-3,-5
-9,-24,-3,-27,-7,0,-5,-71
-18,-28,-4,-2,-9,-5,1,-2
-15,15,15,3,-6,-12,-16,-1
3,23,9,-4,-1,1,-9,16
1,3,16,2,-4,0,6,6
-22,7,50,34,2,0,7,-1
6,-34,-61,-22,-20,-16,-14,-39
9,7,-17,35,23,7,-8,-30
17,14,43,-22,6,9,-15,6
-5,19,-2,-8,0,1,10,17
-20,-49,-55,-22,-15,-11,0,3
-16,-19,5,-18,-14,-16,-22,-24
-37,-18,11,-69,-66,-22,-14,-14
22,12,-14,127,88,34,16,18
9,41,42,-17,31,16,9,8
20,3,-74,-37,-15,-11,1,19
8,-61,1,-15,-2,-4,-2,6
-32,0,35,-14,-23,-8,-28,-71
2,25,-19,-27,-3,-4,-8,-2
11,-16,12,24,3,1,6,16
-9,-7,-9,-9,4,5,-9,2
15,18,4,10,-3,0,7,17
-1,23,22,85,-26,-12,25,39
11,-16,-18,-76,22,2,3,-8
-76,-52,-60,0,4,-4,-17,-35
-36,13,-10,-8,-2,-3,-15,-23
-15,-2,-5,-30,-21,-5,-4,0
-8,-7,28,5,-25,2,11,-5
5,31,-26,45,44,11,4,22
0,-40,13,-10,-4,-4,-8,12
27,9,6,-4,-5,-6,-2,11
14,1,15,4,-3,1,-1,0
-4,-24,6,1,-4,-6,23,17
-22,21,-32,-4,-5,-3,-1,-12
-7,24,2,-7,-7,-6,-7,-15
10,-15,-17,-2,-3,-3,-7,2
5,-4,2,-16,0,7,-11,-17
10,15,13,46,6,3,-4,7
-46,-19,-25,-43,4,3,6,1
-35,2,1,13,5,3,-2,-6
26,-12,17,-4,-30,-13,36,27
10,24,-21,62,35,12,-4,-17
2,-18,-10,-64,0,-5,-14,-7
-7,10,13,14,-1,-7,-8,-1
-3,-14,-3,-57,-10,-8,2,5
-12,6,12,-41,-46,-15,-5,-3
-4,6,-13,112,35,3,6,18
22,-4,5,-2,17,7,11,21
14,-27,-33,-22,-18,-7,-12,-14
3,8,-4,-44,-7,-3,-4,-7
4,24,5,-32,-1,0,-4,3
-11,-17,-1,-21,-23,-5,0,-2
-21,-4,20,96,-2,-8,0,3
41,32,-21,-51,24,12,14,49
17,0,5,75,16,5,5,7
-76,5,19,-76,-9,-6,-20,-88
0,7,17,-5,-9,-10,-28,-35
20,-46,-30,-7,-11,-1,11,-20
-29,-36,-45,-14,-8,0,-4,2
-10,31,48,-44,-58,-26,-12,18
-4,-28,-50,120,50,13,17,24
2,15,-20,19,22,10,-19,-32
44,21,-15,-6,2,-7,-20,-20
-22,-38,32,-8,-6,-5,10,11
-2,-26,-17,-14,-12,-7,-7,12
-9,-8,-48,-7,-7,-4,-5,-2
-36,-35,-11,-13,-5,-4,-5,-43
3,26,33,6,-43,-2,7,7
5,42,17,72,46,6,-2,24
86,28,-43,-28,25,-1,12,40
-118,-51,40,-15,-10,-22,-37,-91
-27,-54,-39,-23,-17,-4,-11,-46
5,55,0,-5,6,2,6,11
-1,-2,20,-3,-8,4,5,18
4,-14,-37,-5,-4,0,3,10
-1,5,14,-38,-26,-8,-1,8
-5,2,7,95,-12,-8,-5,6
1,44,15,-5,57,18,11,4
28,1,5,-13,-7,7,5,23
9,-43,-7,4,3,3,4,2
-34,2,-24,-48,-4,-15,-14,-34
-4,-13,12,62,0,-14,-20,-1
-10,11,-1,-18,-2,-3,-9,-7
-4,17,28,-26,-2,7,41,10
-7,8,-20,-1,-9,-2,2,-6
6,-5,-5,-3,-10,-3,-2,-4
4,-2,14,11,-9,-6,-5,-3
3,6,-18,3,-18,-7,3,9
27,47,26,-71,-31,4,35,87
46,-29,11,127,51,6,-15,2
-45,-15,-84,-4,21,-5,-38,-128
-79,-48,14,-13,-8,-8,-32,-17
31,-19,-18,-14,-11,2,7,41
53,13,-1,-17,-15,-5,15,26
-4,7,26,-10,-10,-7,8,4
-8,25,-7,-7,-7,-2,-12,7
2,-5,1,0,-6,-3,4,6
-4,7,-5,-20,-2,-6,0,3
-13,11,27,48,-3,2,-17,-7
4,27,92,11,3,20,32,36
56,-44,-108,-3,51,16,16,39
-43,-75,-64,37,4,-21,-38,-51
35,24,-33,-34,-6,-13,-31,-101
-59,-29,44,-19,-19,-4,-4,-4
6,13,21,85,-13,0,5,14
10,24,12,-105,-6,3,7,21
14,7,-1,69,16,1,3,1
14,6,9,-2,-1,2,1,0
8,5,-1,-53,-41,-8,-3,21
-4,6,43,89,47,15,9,10
-2,22,-5,-12,20,6,11,1
-9,15,-43,-6,-12,2,1,-16
-5,-86,-18,1,-10,0,-25,-10
10,-17,-33,-112,-9,-12,-5,-1
-64,17,15,-15,-9,-12,15,8
-6,16,13,-5,-14,-4,-7,0
56,-1,7,127,22,-1,-1,19
14,4,14,-83,12,3,1,-5
17,-8,8,-17,-7,-4,4,26
3,17,-21,-6,-2,1,10,29
7,-5,6,-15,-10,4,-14,-32
-70,-40,26,17,-7,-4,-5,-51
19,30,-18,-2,-10,-13,-13,-24
5,14,14,-20,-24,-7,-4,14
-2,-44,-20,8,30,10,2,2
-12,18,-12,-41,4,6,6,3
10,-5,14,22,-13,-18,27,37
17,2,17,26,-4,-11,-3,10
15,29,-20,-31,-13,5,2,-29
11,16,46,8,-2,-3,-18,-24
-38,-70,-115,-22,6,4,-8,-10
-15,3,29,-10,-25,-10,-5,-6
-7,-35,24,-38,-4,1,-3,0
8,-10,-3,-19,1,9,9,21
9,27,22,24,-14,-7,5,48
90,-18,-27,93,22,2,0,-13
-70,16,20,-72,-11,0,-11,-62
-13,3,30,-8,16,5,-7,-11
-4,22,-19,29,2,-1,-2,7
5,-44,-22,-29,-4,-4,4,13
3,-19,-3,-13,-13,-3,4,9
0,-1,-3,5,-14,-3,0,7
-5,26,8,11,-8,0,-23,-3
-3,-9,2,-93,-39,0,21,9
18,13,-6,56,-12,-13,7,20
-3,-3,33,96,54,-5,-32,-4
31,34,1,16,21,10,18,-5
-29,4,-35,-31,-22,-9,-31,-81
-36,-58,-24,-13,-15,-1,-6,15
10,-2,-2,-1,-7,-1,-2,1
-32,8,10,0,-6,-3,-1,-18
-9,8,24,-22,-11,0,6,13
5,18,11,-3,-7,5,8,13
-20,11,1,49,13,4,1,34
10,-27,-3,15,2,-8,-1,13
30,-15,24,43,0,-19,-39,-122
-16,57,-3,-33,5,-1,-11,-5
-15,-34,-41,-18,-11,0,1,15
-13,-18,33,63,21,5,2,18
19,-21,86,-46,7,1,37,10
-9,17,-93,-8,-6,-4,-13,11
11,-38,-13,-78,-14,-3,-12,-45
-2,15,20,15,-31,-8,-10,-10
-15,12,30,59,11,-1,1,9
-15,21,-35,76,48,15,17,21
27,-6,-38,-33,-12,1,4,31
15,9,43,57,8,0,-6,-15
19,-18,-42,-70,-3,-1,-7,-29
-54,3,31,-14,-13,-6,-10,-2
0,10,26,8,9,7,10,16
-21,-13,-15,12,-5,0,-1,-28
-7,-16,-16,-34,-7,-7,-7,-2
32,39,7,2,-10,-5,-15,-4
9,15,23,66,2,4,14,44
-11,-7,-74,-43,-3,6,11,12
5,-11,0,-32,4,-4,-23,-54
12,12,2,17,-4,-4,9,5
-7,12,12,-7,-5,-3,18,-1
-30,-74,-15,19,-8,-4,3,13
-26,-44,-15,-30,-1,-3,-14,-10
14,36,22,-20,-1,4,-14,-1
16,-3,5,-14,-14,-10,-8,3
0,28,6,-34,-18,-14,-7,2
-4,9,-55,80,4,-4,-3,-2
14,-32,5,-1,1,1,-4,6
-59,-45,4,76,21,-3,-2,-10
4,27,13,-52,-5,-8,-5,-6
-11,7,28,-99,-49,-12,-4,0
14,-6,-23,114,36,7,3,6
-53,-1,-16,-73,4,6,4,13
1,28,-17,-2,10,5,14,-4
10,-103,-67,-66,-23,-15,-7,-11
31,-9,-2,-60,-11,-12,-31,-43
-9,2,46,90,0,-11,-19,-8
-7,23,-14,-6,-3,-2,-1,10
-4,-34,-4,3,-12,-5,1,1
-2,5,-6,-1,-4,3,0,-8
-15,2,16,-46,-12,-4,-2,13
-5,5,36,-64,-9,8,60,79
13,29,-7,126,14,2,42,12
48,0,-97,-51,-3,-10,-40,-71
-106,-65,0,-9,-9,-18,-33,-65
2,5,5,-10,0,6,3,-1
20,-51,34,25,9,8,10,28
-72,16,-16,-3,-4,-4,1,34
22,39,11,-90,-38,-14,-16,-40
-21,-16,-14,103,-8,-9,-9,-13
-20,-3,-13,92,50,26,16,16
18,9,-7,-57,23,12,13,18
48,-6,-3,22,-9,-4,-6,6
-48,1,4,-86,-16,-6,-11,-11
-24,6,15,101,-14,-5,0,-19
-3,-1,-87,-73,26,9,34,14
6,-14,3,33,14,6,4,13
10,-32,0,-3,-5,-5,-9,-23
-11,14,13,-16,-15,-7,-6,-10
-7,22,37,-67,-77,-18,-9,-6
-9,3,3,127,74,13,6,5
-6,-3,-10,-12,25,8,1,7
61,23,-46,-22,-9,-3,6,30
-27,-40,-60,-25,-19,-12,-21,-23
3,16,44,-12,-15,-6,-3,-38
-17,-89,3,-9,-10,-1,-8,16
-11,-8,9,-2,-4,0,3,3
7,26,24,0,-4,-1,3,-6
-9,22,-10,-22,-6,-6,-18,-21
42,18,-9,30,1,1,18,47
19,8,-31,-6,-10,-4,-1,-11
-83,-13,2,-16,16,2,-13,-59
-6,10,19,-6,2,2,-2,16
19,0,-57,15,-7,-4,-1,6
0,-4,34,-57,-1,2,4,1
-8,-12,1,61,-22,-5,-7,-1
28,-6,-4,-25,10,1,-12,-13
1,6,6,25,18,4,5,17
-18,16,29,-44,-5,-5,-4,3
12,-18,-4,-54,-38,-12,-12,-20
28,55,39,86,-8,-11,-12,4
-23,-77,-21,82,11,-4,2,2
-13,-75,-42,-90,19,7,6,14
4,2,-11,-17,33,16,12,-8
42,43,-7,-9,-13,0,3,6
-78,21,81,-28,-13,-6,-17,-8
-22,10,-68,-14,-11,-8,-5,-25
9,-9,-7,27,-2,-3,4,3
9,-8,-11,-26,-10,-1,6,17
7,-8,10,11,-14,-5,-2,8
-8,22,7,-52,-25,-7,-8,-35
-1,0,10,86,16,3,-21,30
-15,-6,-15,-19,19,17,24,-11
4,40,26,-26,-10,-5,33,-53
39,-66,-21,-22,-16,-12,-27,-18
-12,-12,8,-5,-11,-14,-17,6
-58,34,7,-5,-9,-10,-11,8
32,31,14,-2,-3,1,6,18
-16,-33,-8,-3,1,2,-7,-13
22,16,-18,-1,0,-3,1,-3
-7,11,9,31,2,0,-5,4
-7,16,5,-5,9,16,4,34
19,42,16,-11,-16,27,42,58
34,32,11,35,-13,-12,-12,-19
5,-112,-32,24,41,-17,-35,-122
-59,-33,6,-11,-9,-10,-13,-23
-10,29,17,-11,-14,2,0,12
3,9,1,-36,-37,-8,2,14
-7,1,6,59,32,10,8,14
16,1,-61,-56,-3,4,5,21
14,12,17,4,-19,-3,-1,-3
0,23,29,37,4,-6,-5,6
-2,-17,-14,-85,-36,-7,2,0
5,-5,-26,43,65,18,7,2
8,-12,-16,-1,-10,-4,-7,-4
-46,-16,23,-3,-15,-5,-4,-7
2,10,-5,-7,-10,-5,-7,-1
-11,24,-14,-37,-21,-7,-4,-11
-11,-3,17,8,-19,-11,-2,-1
19,9,23,12,12,10,12,33
-12,-13,4,9,24,13,9,5
45,1,-26,-13,-5,-14,-22,-46
-2,20,-12,-9,-6,-12,-17,-7
-3,-38,5,1,-5,2,3,9
-2,54,11,2,-6,2,4,10
1,-4,41,-1,-2,3,-11,57
-7,-91,-22,-11,-8,0,80,43
-3,14,-27,-13,-12,-15,-37,-105
3,18,32,-28,-28,-20,-43,-24
8,43,40,85,44,6,-9,7
37,16,-46,-58,3,5,3,24
16,-24,-20,-13,-6,-3,0,14
-33,-19,1,-12,-7,-1,3,5
-18,-5,9,-3,-6,-1,0,3
-6,25,19,-128,-41,-9,10,38
13,-7,28,127,-43,-8,14,12
63,64,19,-58,101,28,-24,-51
-47,-105,-61,-41,0,1,-25,-43
-17,-13,11,-22,-17,-10,-4,0
-4,-18,-1,-45,-19,-7,5,7
-2,0,22,10,-35,-10,1,4
7,25,8,-100,-12,-11,2,6
-1,1,13,112,-45,-2,2,2
5,15,-13,-45,110,32,13,11
4,47,30,-32,-13,-2,5,5
-3,-34,-70,-22,-21,-7,-4,7
-1,-17,-1,-15,-27,-11,-9,-18
0,-29,54,-6,-20,-13,-23,-16
-24,-9,-33,-13,-1,1,-2,4
-2,9,-44,-2,-5,-2,45,28
9,16,39,12,4,-2,-7,19
-27,-5,20,9,0,1,-3,-29
47,26,-5,7,2,2,7,7
33,14,16,6,5,6,14,11
11,-23,6,6,2,0,-9,5
-7,-4,6,-1,0,-4,-21,-56
-35,17,-4,3,-12,-17,-20,-14
-16,12,5,0,8,1,3,4
-5,-13,3,-6,0,3,-3,11
-5,-2,11,-34,-19,1,38,39
37,-8,1,31,4,2,5,6
-21,-4,6,-24,4,1,-10,-19
-17,-48,-35,-24,19,4,-5,4
-4,27,3,45,-5,2,10,6
10,-9,-38,-32,30,18,18,69
23,7,17,11,-20,-9,-14,-7
-26,-17,54,-20,-20,-10,-27,-95
-12,-4,-79,74,-47,-10,-12,-11
5,19,-10,-80,76,23,8,19
3,-57,-26,-60,-12,-7,0,12
17,24,79,110,22,12,8,17
-19,0,-96,-77,-15,3,2,6
10,-16,8,-15,-17,-3,2,5
25,54,24,-40,-13,-7,4,3
-53,-9,0,11,-16,-14,-11,1
7,5,57,-15,-18,-6,5,12
25,21,5,57,15,7,13,-2
-30,-10,-34,-36,8,0,-9,-5
-31,5,12,-11,-7,-9,-24,-29
-9,14,36,-29,-29,-5,-19,-54
-4,20,-7,43,24,-2,8,0
36,-60,-3,28,12,7,20,44
-25,0,7,-10,-4,-6,-1,32
33,8,6,2,-30,-18,15,-16
-67,-2,2,-18,5,2,-18,-26
8,28,14,27,7,5,-3,-14
2,-10,-37,-36,-13,-1,3,1
-7,-2,-2,-30,-11,3,7,21
-26,-37,-4,26,19,8,10,19
9,-13,-3,-41,-6,-2,-7,15
-1,4,17,34,-14,-9,-18,-29
11,31,15,9,6,10,0,-26
0,-29,-56,1,-5,-3,-3,4
-50,-57,-78,32,-13,-17,-24,-31
-22,30,15,-42,23,2,0,11
7,-14,35,-50,-26,-4,2,9
13,8,0,24,12,6,8,28
15,-16,-19,30,-11,-1,3,-7
0,-5,-21,-15,15,5,2,-14
21,42,0,-18,-10,3,1,-17
-26,-30,33,-4,-15,-6,-9,-11
8,-1,-6,-4,5,-2,-1,4
-35,24,18,15,-8,-3,4,4
8,7,27,-27,-9,4,16,17
41,19,11,61,34,9,11,24
36,23,-44,-9,-10,-3,-16,-20
-6,-28,5,-3,-11,-12,-54,-31
-79,-8,8,-7,-3,-4,24,26
-6,-46,24,-11,-6,-10,14,-19
19,18,-64,-19,-16,-10,-23,-22
15,10,-3,-23,-6,2,-5,0
-6,-6,-8,22,8,5,5,-11
6,28,35,12,-7,-4,-12,-2
7,30,18,-10,8,2,3,16
-10,14,33,-31,-26,-6,10,25
11,-20,-8,76,1,2,-6,-25
14,-79,-34,-66,55,14,2,-16
17,59,3,-20,-11,-3,2,2
-43,-31,-22,-16,-23,-16,-2,8
-4,-15,-14,-71,-31,-13,-14,0
15,8,30,31,-20,0,4,11
-5,12,-12,78,43,13,8,12
3,3,-29,12,7,6,-1,8
-17,-34,40,-65,-48,-24,-15,-40
-12,9,-13,110,15,-6,-11,0
19,7,-22,-100,14,3,-9,-7
-14,-46,-29,19,-1,-1,2,-9
15,6,-41,-51,-11,-5,5,9
-18,20,19,5,-4,5,8,8
3,22,47,38,-5,8,24,35
42,-5,1,-46,1,-1,-26,-10
20,-28,28,16,8,-7,-28,-29
-37,43,-14,16,2,-10,16,-13
4,16,16,3,-3,-1,-1,-36
2,-58,11,-3,-9,-5,-3,5
-8,4,-5,0,-1,5,5,15
4,25,22,11,8,12,15,17
13,19,-11,-15,1,-2,8,36
-11,-3,-21,-128,-46,-22,-13,-8
39,-42,3,127,38,5,-18,-41
-48,-11,-30,31,46,7,-22,-49
-5,-7,3,-26,-1,-3,2,13
7,22,-7,-17,-5,-1,11,13
-1,26,2,-70,-46,-8,1,9
-10,7,23,37,-7,-5,3,3
-11,8,65,36,32,7,4,15
30,38,-4,-40,-7,-4,5,20
58,14,-71,-22,-7,-7,-11,-4
-121,-85,13,-89,-38,-15,-18,-51
-12,-23,-44,40,-4,-2,-10,-18
13,17,70,83,-15,3,3,13
1,-9,-26,-128,34,10,3,11
16,19,9,76,-57,-15,4,19
9,-7,-7,108,79,22,6,12
-8,26,17,-53,-9,-5,-15,-29
-34,9,14,-19,-15,-4,2,1
-12,-7,3,-10,-11,0,-11,8
18,14,8,-8,-6,-3,7,15
15,-58,-10,-15,-16,-20,15,-11
24,-25,-35,-6,-9,-11,-31,-69
-8,-3,-6,3,-1,-1,-12,-13
24,23,-34,3,4,6,-6,-2
-48,-8,-3,-4,1,1,0,8
-17,25,16,-3,-7,-7,-1,5
22,-13,-8,23,-16,-8,2,1
43,40,15,-25,18,6,9,26
0,-20,-8,42,6,3,2,13
-51,-23,19,-32,12,1,-8,-17
13,-5,-7,4,-36,-17,-17,-12
-5,17,-12,-60,14,9,2,-13
-29,-18,10,20,-14,-6,-9,-9
24,8,-3,9,42,-1,-3,12
-13,2,5,69,-8,-11,-4,6
-2,4,-48,-64,-42,-8,-2,-15
4,-15,-11,-58,28,19,11,45
30,27,39,30,47,25,16,17
21,-66,-21,-3,-29,-10,-13,-67
-46,13,-36,-53,-52,-19,-15,-23
-2,6,15,-19,48,6,-1,7
1,15,5,46,-1,-4,-26,-2
-18,-20,6,-10,-19,-7,42,17
8,22,5,5,-2,-2,6,11
27,10,11,-3,-10,-5,4,8
14,-6,-6,3,-13,-9,0,14
8,-13,-11,0,-4,2,-1,9
21,40,9,-11,1,11,6,7
-62,-78,-20,-42,1,-12,-21,-14
-13,-14,2,34,6,-10,-9,-39
18,13,-35,14,4,-4,-9,9
7,20,6,-28,-10,2,-10,-54
34,20,19,22,5,3,-27,5
-90,8,-33,1,18,13,17,7
-8,-15,-1,-27,-15,-4,30,21
-1,-30,-4,25,14,7,1,7
4,-40,12,-15,-20,-1,1,16
9,14,70,-1,-30,-15,-12,-35
13,-6,-58,4,68,18,-6,-3
-17,17,-5,0,0,-4,1,-6
4,-5,14,22,-16,-5,-2,8
22,7,26,-48,-33,-15,-2,10
-6,3,-6,-26,19,8,17,54
4,-48,0,7,24,13,15,16
23,-35,-63,-15,-21,-15,-44,-90
-17,-8,4,-4,-20,-14,-34,-38
-37,-27,13,-34,0,-5,-11,-14
-5,11,6,27,-13,-7,-1,11
4,15,32,-15,13,9,10,19
0,-4,-47,21,1,-1,3,11
8,2,5,2,-4,3,5,20
-6,-5,5,-70,-11,2,9,6
-10,55,30,127,-3,9,9,30
19,22,-13,-46,28,-17,-18,18
24,-29,13,48,-3,-16,-41,-94
-78,-95,-4,-121,-8,-6,-20,-40
-22,12,-62,0,-14,-1,5,7
-1,0,1,-8,0,5,3,12
4,28,15,48,-1,4,7,8
9,9,6,-12,2,3,9,9
15,14,9,-2,-8,-5,1,6
1,5,5,2,-4,0,1,3
-4,-10,3,2,-2,3,-2,1
-11,1,-2,-20,-4,6,-9,0
-20,26,14,-89,-64,-26,-8,0
39,-23,-11,127,51,1,23,24
127,31,27,13,8,4,-20,-27
-111,-77,-62,-39,10,3,-12,-22
-29,-44,-14,-22,-15,0,-4,-10
-7,-25,37,-18,-15,-8,1,12
-1,20,-22,12,-2,-4,-2,-13
-5,15,50,9,-6,0,-3,-4
9,33,-8,-14,7,-1,1,8
2,-2,-30,-5,-10,-4,1,7
3,6,0,1,-3,0,5,7
-8,-1,11,-1,-5,0,5,8
-32,0,12,1,-3,2,1,-2
24,23,13,-47,-38,-7,10,51
92,0,15,75,-67,-41,-43,-13
25,-3,-14,73,127,19,-25,-109
-68,-43,-57,30,26,2,-5,-2
-12,10,50,-21,-17,-5,1,25
-7,-32,-116,-25,-27,-6,-4,-9
7,-6,11,-9,-15,-2,-1,13
7,-3,7,-1,-10,-4,-22,-49
4,23,20,0,-3,0,10,8
-1,-17,17,1,-5,-2,-1,3
3,3,3,0,-3,3,3,13
0,6,0,3,4,8,16,19
-19,1,-4,-18,-15,-19,-13,4
15,24,4,-34,-10,-10,-12,-14
55,57,15,119,-6,-10,-35,-33
-72,-128,27,-20,43,18,14,23
-13,10,-69,-6,7,-3,8,11
-17,19,-9,-42,-24,-11,-4,-58
-1,-15,-13,26,-3,-4,-12,-9
4,0,29,7,-7,-5,-3,5
-1,18,6,-19,0,5,-2,-3
2,32,4,-12,-12,-8,-1,11
-8,-24,3,4,-18,-7,0,3
5,4,17,-36,-76,-6,-5,11
-4,18,-29,127,127,42,40,33
30,-10,17,-111,6,-11,-26,-57
15,-14,75,-29,-11,-10,-10,14
-22,-29,-77,-17,-14,-11,-11,2
9,54,-5,-9,-25,-3,-6,-31
-15,-2,17,-21,-27,-4,-3,-2
-32,-63,-37,21,-1,-5,-1,5
12,-3,25,60,-11,-9,-1,1
0,20,7,-37,16,3,0,-6
9,26,20,26,15,9,7,9
-2,23,32,-66,-37,4,12,20
2,-8,-25,104,51,11,4,7
18,10,2,-16,11,-5,-6,-5
-6,-11,10,-17,-14,-14,-14,-24
-24,-12,-28,-10,-14,-8,-16,-59
5,4,59,-11,-13,-7,7,23
17,16,-5,-34,-24,0,10,54
-7,12,-5,50,12,2,-5,-16
17,-50,-5,-13,10,3,-6,-21
-28,51,27,0,1,-2,-16,-27
2,17,-35,2,3,8,10,13
55,-13,16,-2,-3,5,32,34
-19,-6,-31,-1,-12,-8,-2,-28
-11,-1,-1,-23,-12,-8,-3,-4
-12,-5,9,1,-14,0,1,-10
-22,5,22,54,-29,-11,-8,15
1,8,11,-30,56,2,-1,4
72,32,14,-30,-1,6,7,6
-8,-10,-39,-6,-2,3,7,2
-7,49,3,-38,-13,0,-3,-4
-24,-86,-7,-15,-38,-14,-8,-7
-6,18,8,86,44,10,1,2
22,4,8,-44,-29,-7,-2,13
-11,9,12,-4,15,5,-1,-25
24,13,10,-24,-1,0,0,-5
-2,8,-33,22,1,-1,3,8
-4,-17,-14,11,-3,-1,-4,6
-11,-16,1,-12,33,1,-1,1
1,-7,7,-6,-11,-5,-2,-13
-6,8,12,-14,-13,-3,2,11
1,35,15,10,-17,0,5,0
33,12,-2,-26,-10,-9,-38,1
19,-41,-9,8,-4,-14,-8,-7
-37,11,-19,-6,16,1,18,3
-19,-41,44,4,16,12,-5,-28
-20,-3,4,-25,-10,4,-1,-25
32,77,-33,22,3,2,18,28
6,-76,-4,13,0,-9,-21,4
-12,-7,14,-6,-8,-6,-9,-6
-10,-25,12,-4,-7,-5,-8,-34
-8,9,22,-25,-8,-6,-16,-6
15,-8,-16,-3,-3,-4,-5,2
-73,0,-43,25,6,-1,5,5
1,11,-1,-47,-9,-2,2,5
6,12,70,-42,-55,-14,-3,8
7,-7,-32,100,113,32,19,14
-6,32,-12,-11,1,2,3,15
5,-17,6,-12,-8,-8,-4,12
45,-40,-4,-59,-46,-7,-8,-29
-16,-3,6,54,37,-1,-14,-21
-32,42,48,-76,-29,-13,-8,-8
-6,-7,-60,84,-9,-11,-7,-5
2,1,-49,-30,77,34,19,13
-1,1,30,-45,-17,-6,-14,-1
22,27,-30,-26,-30,0,8,43
8,31,41,6,-24,-11,11,20
-44,-60,-42,6,-1,-8,-20,-76
14,24,-16,6,1,-2,-10,-23
-12,-15,22,3,0,-3,-40,2
20,1,-42,-5,-10,-15,-1,-7
25,15,1,-1,-5,-2,11,12
3,-2,16,2,-2,-1,-1,10
-13,-7,-4,5,3,5,7,4
-19,-6,3,4,6,5,12,15
19,17,-1,-1,0,-9,-18,9
61,36,16,1,3,-6,-8,7
-28,-36,-33,2,2,4,63,1
-16,32,26,-5,-6,-1,-3,27
1,-16,-22,-29,-24,-13,-29,-66
11,-62,-12,-56,-8,5,-15,-5
-15,-13,-9,21,30,10,10,19
14,6,-7,69,33,6,0,1
-29,-38,-8,-36,-6,-7,-7,6
-7,18,2,25,1,0,-8,-9
4,22,12,-67,-43,-8,0,7
3,31,58,21,-17,-6,-1,8
4,16,48,4,38,15,9,9
26,-34,-106,-37,-9,-5,3,9
-22,-29,-42,-23,-18,-10,0,3
13,9,35,-49,-56,-20,-13,-15
-13,27,24,74,58,4,2,8
-8,2,-11,16,15,10,9,11
34,1,15,1,-4,5,2,7
40,6,-32,17,1,-8,-5,-14
-26,-23,-1,-18,-12,-8,-23,-32
17,-4,-15,-12,-12,-3,5,27
-7,36,29,20,-12,5,21,45
12,28,-14,2,2,7,17,5
-16,-23,-12,-15,28,-2,-42,-69
-18,-47,-7,-5,1,1,12,-21
-25,23,-1,-4,-12,-7,11,14
-16,12,16,-4,-9,-9,-19,-3
4,5,-1,-4,-3,-1,39,26
30,15,-8,-6,-9,0,9,7
31,-7,-1,-28,-21,-2,-3,22
2,4,8,43,22,17,8,11
-31,16,-6,-22,0,5,3,-24
0,-20,-38,-1,3,-4,-18,-13
48,-5,-23,50,-3,-9,-12,-8
6,53,26,4,-13,3,3,4
-4,-83,-41,-105,-28,-16,-5,35
8,-40,-5,103,-6,1,3,-31
-35,23,7,28,12,1,-4,-31
-5,-31,61,31,48,17,8,7
-5,-18,-98,-24,-5,5,-2,1
14,22,23,-15,-12,1,2,8
4,-2,11,-15,-18,-7,-1,16
6,-29,-40,-77,-43,-16,2,24
-10,-49,-34,48,-12,-8,-20,-29
-8,54,-8,115,36,1,-22,-50
-12,11,35,-63,5,11,16,11
6,-6,5,-16,-14,-8,-8,4
15,26,-36,-7,-12,-3,12,28
14,29,24,1,-6,6,9,18
15,-17,-54,-23,-13,-12,-32,-21
-61,-1,33,-4,-19,-11,-21,-52
44,-6,-3,40,19,-6,-13,16
-2,9,10,-3,-3,-5,-1,6
4,15,2,-4,-3,4,6,6
-5,32,3,-11,3,4,-6,-41
-18,-40,3,6,-8,-3,7,18
-5,-1,-2,28,4,3,-13,9
24,8,-1,-12,8,0,13,5
4,-5,18,-29,-12,-4,-31,-10
3,-8,-57,-4,6,7,1,5
-9,10,29,6,3,-2,19,9
6,-39,-21,1,-11,0,1,-2
-4,8,-9,-61,-26,-14,-39,-2
-7,8,-43,-49,-4,1,-1,16
6,-2,31,76,22,6,5,15
32,18,26,-2,-5,-8,-5,-36
-25,0,1,64,-10,-2,-2,4
8,19,-15,29,17,-2,-8,-10
-1,-52,23,-22,-15,-9,-3,-25
-25,24,-7,-39,-3,-6,-10,-6
-10,-60,-43,-34,-9,9,12,20
17,-5,20,2,-32,-4,6,34
-14,11,-3,35,6,-17,-17,-41
0,31,5,-6,3,0,-4,18
14,8,19,-5,-5,-1,1,8
7,-33,-2,-8,-10,-4,-16,-13
-3,32,-48,-9,-13,-3,-1,-1
4,-58,-18,9,7,-2,36,20
-23,3,12,-5,3,5,8,3
-26,10,10,-1,0,0,-11,7
37,18,8,-5,-4,1,14,54
85,34,39,12,-7,5,7,-5
-30,-32,-36,-48,-9,-15,-44,-80
85,34,39,12,-7,5,7,-5
-30,-32,-36,-48,-9,-15,-44,-80
-19,-7,-24,68,9,-8,-22,-26
-13,-14,23,6,19,8,-2,-3
