Channel_1,Channel_2,Channel_3,Channel_4,Channel_5,Channel_6,Channel_7,Channel_8
0,10,-20,-66,8,-1,-23,-57
6,25,55,11,31,-4,-6,10
18,9,6,35,-26,-1,11,8
7,-14,-23,-109,9,5,0,32
-25,-49,-2,-43,-30,-2,-13,-6
-31,-10,9,66,-3,-1,3,-10
20,31,32,20,14,11,9,-14
-1,11,-8,12,-1,-7,8,26
23,-5,57,37,28,11,3,15
-88,37,-105,-53,22,-3,-30,-52
-10,-95,-42,-21,-14,-7,18,4
0,-41,36,-2,-16,-1,-8,-6
5,-2,36,-82,-46,-5,3,47
18,34,6,43,19,1,-6,-10
-13,-29,-7,-30,-6,-5,-13,-87
20,30,10,27,-25,-7,0,21
28,30,6,57,69,11,8,13
-46,7,14,-109,-44,-6,1,37
19,33,14,116,-33,-12,2,-12
42,-49,-60,-110,75,23,-11,-21
-23,-2,54,32,16,1,-4,8
-16,-18,-72,-7,-15,-8,2,-17
-20,0,30,-15,-30,-11,-1,0
-1,4,9,16,-4,-1,-4,8
4,2,-1,-7,-26,-12,-9,2
-25,-3,-73,-18,-23,-2,-5,-1
1,4,6,-11,-8,0,9,24
27,56,29,-111,-22,-6,18,47
-18,-44,31,127,18,11,6,-5
-55,-14,-18,-7,11,-5,-45,-59
-45,-6,-18,-11,-1,-10,10,-31
38,-13,12,-28,-9,-11,-42,-78
19,-30,7,3,-53,-17,-7,17
-57,18,-31,93,95,13,13,19
-19,-3,-17,-57,11,8,7,16
7,8,13,70,1,0,4,-9
9,-4,-1,-81,-22,-10,-19,-21
-6,-29,-8,5,-17,-2,2,8
-11,12,37,-13,-11,-3,2,8
-6,20,20,-43,-29,-2,4,14
22,29,36,-42,-31,8,24,56
88,10,-18,79,73,3,10,-17
-65,-1,-40,-10,-5,-8,-27,-63
-23,-45,41,-12,-13,-5,-6,17
5,-11,-35,-17,-12,-6,-3,50
32,-23,-46,11,-35,-11,2,26
58,-4,-17,-86,20,-2,-12,-16
37,-21,22,-23,-6,-10,-33,-6
-56,21,-26,-4,-15,-8,-6,-50
-6,26,-7,10,-17,-4,25,16
-15,31,37,50,-57,0,22,48
32,6,-14,-42,65,20,21,38
29,-24,-63,-70,-12,-7,-30,-34
-56,-53,-60,5,-23,-12,-22,-7
-7,-1,-4,-4,12,-2,-2,-5
-1,6,7,-7,4,-2,4,-2
2,16,-15,10,4,1,2,5
5,5,9,0,-9,-1,3,22
19,12,25,16,-37,-10,2,14
9,6,13,-20,13,3,8,-22
-3,-33,-8,127,17,1,8,47
-44,33,62,-128,-19,-7,-5,-42
-42,4,-46,56,23,6,-33,-52
11,-55,-13,-25,4,-3,12,-3
29,-43,-20,-12,-7,-8,5,-6
-14,-24,9,-7,-19,-14,-4,-10
-19,2,12,-1,-13,-5,-22,14
-1,22,11,3,-7,-7,-5,7
-10,17,5,0,-2,4,12,16
-21,10,1,-17,-17,0,7,33
49,40,7,35,-5,-13,8,26
31,-33,-3,43,-10,-8,-11,-31
35,-31,-38,-2,56,17,-13,-51
-35,20,-8,-9,0,-11,-36,-30
-15,-2,18,56,-11,-4,11,22
-16,-31,-12,-28,20,0,9,10
-3,-5,-1,-13,-7,-2,10,18
7,38,8,-2,-1,2,-1,2
0,-3,4,-23,-15,-2,1,-3
2,3,-27,29,-37,-12,-2,6
-2,-3,-17,15,46,17,19,46
13,12,4,6,8,3,-5,4
5,22,7,1,-4,-3,-15,-33
17,13,29,-128,-94,-25,-2,44
44,33,31,127,77,16,24,24
46,-12,-62,-128,87,17,-50,-128
-90,-119,-64,-60,-21,-26,-45,-48
-4,-33,-11,-22,-28,-1,0,12
11,63,-9,23,-30,-2,8,33
15,38,14,54,-7,-4,10,21
12,39,15,-37,2,2,5,21
8,14,11,3,0,4,1,1
7,12,12,46,15,-1,2,7
-3,3,20,9,-3,-3,1,1
-6,-19,-17,2,-8,-2,-3,-5
3,3,4,-32,-5,-3,-2,-1
-9,-2,-7,7,-2,-6,-3,-8
-48,8,27,93,-38,-9,3,32
23,-8,-23,-60,56,20,13,57
103,96,-12,-58,-7,-4,6,-16
-39,-128,-33,68,2,7,-32,-128
-64,-128,-17,-45,18,3,10,29
-13,0,1,-16,-13,-30,-27,43
-4,27,-6,-36,-16,-12,-25,-73
2,47,22,41,-22,-10,-15,-58
37,24,23,12,-12,-5,16,56
11,-18,9,103,21,13,27,33
-38,-13,-40,-9,27,15,0,-27
3,31,12,-94,-24,-7,-5,8
9,11,21,123,-11,1,-4,0
-4,-14,-31,-33,33,12,-1,-8
3,-2,-13,-7,-9,-7,-2,3
7,8,11,-5,-13,-3,-2,1
-11,-6,0,0,-6,-1,15,54
30,36,18,-9,-20,-7,10,29
-18,14,-2,-56,-29,-19,-41,-105
4,29,27,127,-5,0,3,16
-5,-59,-24,-47,74,23,30,45
-6,-108,-58,-47,-8,-2,-12,22
-27,-21,36,-14,-22,-15,-27,-90
-20,1,-4,-7,-11,-7,-1,6
12,44,29,-61,-30,-2,6,1
-19,-5,-23,60,14,0,-11,-33
1,23,28,7,-1,0,-7,-5
-11,-15,-10,21,21,-8,-9,-3
28,10,-33,-21,-5,-12,-10,14
9,8,38,-15,-12,-4,3,-4
-9,19,-11,-49,-6,4,-1,7
4,-18,-43,66,44,13,13,14
38,-3,-7,-85,-28,-3,7,36
-47,-3,15,127,5,8,10,-5
48,-10,-24,-128,27,5,-17,-61
21,29,28,-16,-7,6,30,24
-45,-83,8,-12,-8,-6,-16,15
-15,-64,-22,2,-16,-9,-7,-59
-20,-17,-22,-2,3,-11,4,4
-12,68,55,-95,-49,-6,12,39
27,-1,-18,127,38,10,16,28
66,-6,-40,-36,29,0,-25,-32
-37,-38,39,-105,-25,-9,-30,-38
-18,34,71,37,-16,-8,-3,-7
-3,-13,-25,15,5,0,6,8
8,15,-15,-37,8,10,15,41
7,1,-29,-7,-8,-4,4,9
1,-1,1,-6,-10,-8,-10,-27
-6,27,33,92,-97,-23,2,16
4,17,-19,52,127,33,26,49
27,-13,-17,-18,6,7,-18,-49
-25,-11,7,-12,-7,0,-28,-86
-45,17,-7,-5,-10,-7,-24,-10
11,7,34,2,-9,-7,29,26
46,-98,-12,-12,-18,-5,10,44
-13,49,-9,-6,-13,-5,10,25
-33,-26,3,-9,-19,-4,-2,-2
13,-7,8,5,-10,-2,15,-21
30,24,56,75,67,7,-13,18
-18,9,-31,-90,-15,-6,-5,-23
-45,9,-19,-5,-8,0,10,19
12,11,-1,-2,-9,-1,6,-1
-17,-13,9,2,-10,-3,-19,-27
-12,-20,26,-46,-25,-7,-3,7
11,17,13,85,-15,-10,-11,-46
-6,28,-82,-13,15,2,-12,7
-19,-92,-6,-3,10,0,1,16
11,-31,-17,14,23,5,6,17
19,24,34,-13,-8,3,13,17
36,-2,9,-72,-17,2,7,22
-41,-42,30,83,-56,-11,-17,-18
16,61,-39,-41,75,-4,-13,-21
-2,-72,-7,34,-12,-10,4,28
17,39,-9,-92,6,5,2,-4
-7,21,50,25,-12,1,-3,-6
-72,-46,-39,12,-11,-12,-11,24
-16,-14,-36,-47,-39,-13,-14,-63
0,30,-50,31,25,0,1,-5
-3,-70,37,14,8,2,-33,-28
4,-4,3,-20,-11,-6,4,-2
48,-5,-13,10,-12,-9,-13,-12
-6,12,-8,-53,9,4,2,22
-3,22,38,-4,-12,-8,-10,10
-13,2,-9,28,7,2,3,15
-28,24,-24,-41,-57,0,23,27
25,-41,16,91,97,31,25,38
62,0,-5,-79,7,4,11,15
-36,-34,6,-25,-23,-29,-48,-61
-31,-14,-1,23,-2,0,-29,-95
-21,-2,13,3,9,3,4,19
31,48,10,-43,-11,6,8,17
18,46,5,55,8,6,13,29
8,-32,10,-53,-65,-14,3,14
-13,4,7,60,71,10,-6,6
15,6,8,51,-26,2,43,25
10,-10,-39,-102,56,16,-7,-2
5,24,-5,62,-18,-9,-19,-22
15,7,-42,-76,0,0,-14,-15
-14,-31,-31,-38,-30,-4,1,14
11,1,41,18,-26,-4,1,6
-14,17,-5,96,51,11,-2,9
27,-18,15,-19,1,0,3,20
30,68,38,-9,-7,0,18,13
-31,-11,-11,-43,-31,-5,-5,1
5,-42,-51,65,17,0,-11,-10
9,5,-1,-1,12,12,4,-35
-17,-34,12,9,-15,-16,-36,-20
7,23,3,-36,6,8,22,14
7,17,2,-6,-4,-7,-1,14
9,18,26,-7,-4,-4,13,37
-14,4,6,20,-20,-2,3,14
3,-14,-22,-34,30,14,-21,-52
26,11,10,-2,1,11,-3,22
31,56,1,-52,-22,-1,30,40
15,-20,-21,66,20,-18,5,-38
-27,-113,-46,-2,2,-8,-34,-34
-71,2,-9,-8,-13,-6,-17,6
-16,-32,22,-12,-19,-10,-7,-57
1,33,32,-7,-21,-3,5,21
-1,4,-48,104,37,18,25,58
24,15,29,-128,-19,-4,-7,6
19,-32,6,127,-26,-9,22,14
30,20,-28,-97,44,14,-9,-56
-39,-7,-41,-56,-15,-9,-10,-4
-21,-37,24,81,-72,-23,-3,10
11,-21,-24,-60,74,19,9,3
2,-1,-15,-14,-7,-5,-15,-7
1,-10,19,-11,-12,0,6,15
-18,-37,-97,-66,-19,-8,4,4
2,12,50,29,-57,-15,-7,-34
10,20,3,33,71,6,-4,6
39,-10,-20,32,23,-2,10,48
-89,-31,-4,-38,-7,-1,0,-13
-1,-45,23,-10,-15,-9,-11,-51
17,12,-21,-7,-9,-4,-21,10
-2,27,3,0,-5,4,12,29
12,-2,4,-5,-2,0,12,-37
-8,1,3,-1,1,-2,-2,-29
-4,0,-8,5,0,1,-22,7
-2,29,14,33,-8,-1,10,31
-35,-23,-33,-72,-4,-1,2,-4
48,22,5,0,-17,-5,-11,0
62,73,37,-50,-2,-6,-17,-8
2,-19,-15,33,4,-6,-10,-18
-67,-58,-57,33,34,15,4,7
-11,6,19,-3,10,11,10,9
-10,36,23,-52,-13,4,8,14
9,28,46,49,-26,-6,14,31
42,-27,-43,-39,36,11,5,-15
-9,26,3,4,-12,-3,-24,-56
-19,20,60,127,-61,-21,-11,-7
-25,-11,-30,-128,111,29,9,11
-12,-46,-53,-34,-3,-5,2,39
25,15,2,-3,-12,-2,31,19
1,29,29,-32,-15,-2,-14,-7
-13,10,56,0,-35,-2,-5,-33
3,-36,-34,18,7,-14,-20,-10
0,-10,-2,127,33,0,6,35
3,22,-6,-21,9,1,30,16
49,-33,9,-21,-13,-4,-24,-22
-58,-38,0,-12,-9,-5,-26,-10
-22,-24,6,-21,-13,-13,-4,-4
-1,13,8,3,-11,-2,5,16
6,36,16,10,15,9,8,24
-15,-12,4,-2,4,0,-2,-31
36,31,10,-7,-6,-1,4,8
-1,-28,42,20,-41,-15,4,3
-22,-25,-69,-1,67,15,17,17
10,20,-17,-17,6,-1,-20,-19
-7,5,19,-31,-10,-6,-21,-62
1,29,17,64,-47,-17,1,5
-3,-16,-16,-72,26,0,-44,-28
22,-9,-26,18,5,1,1,6
20,18,3,5,-5,-2,22,31
-50,0,13,-113,-44,-13,-8,0
-55,11,-30,118,56,13,3,-10
16,-21,42,-31,-5,4,8,16
15,-16,-22,20,-5,0,6,18
-20,20,23,-32,-28,-11,-18,-29
4,19,14,-57,15,1,-11,-8
-10,6,-10,-11,5,4,7,-10
8,-10,-31,127,-31,-9,3,30
51,-22,-105,-128,46,19,5,-13
30,17,30,-48,-34,-12,-20,-37
1,50,12,4,34,0,-2,9
-30,-29,27,-21,-15,1,1,9
-18,-41,-13,-9,-16,-7,3,18
-8,23,26,3,-8,-2,16,37
41,55,-5,-6,-13,0,-16,25
5,-42,-8,-25,-25,-10,27,-45
84,4,17,33,21,8,-3,-10
-72,-79,-15,-13,3,-6,-36,-41
-40,7,-29,-7,-5,-11,-17,-53
7,40,-20,-1,-4,1,-2,8
6,-31,16,-3,-2,9,10,15
9,2,-4,-59,-11,3,13,45
-10,7,-2,12,-4,-6,15,52
-32,13,36,64,-68,-19,-14,-42
54,33,-35,30,89,12,-17,-70
24,-66,-1,-41,-2,3,-4,-5
-12,-5,-34,-36,-18,-7,-12,14
-19,28,31,-1,-14,1,-11,19
-20,-35,-11,-33,-24,-8,4,-7
-16,-29,16,-12,-5,-8,30,6
-7,-5,-37,-23,6,5,0,5
-3,44,28,-18,-5,-1,-5,3
-6,8,23,127,-1,-6,-1,18
21,20,-30,-128,10,7,14,15
25,36,18,10,34,6,0,-9
-13,-54,-18,-16,-15,-5,-13,2
-56,-14,37,-2,-18,-7,-10,13
-4,-7,3,-7,-17,-17,-30,-86
7,37,4,-10,-11,2,7,-4
11,-18,10,44,-7,-10,6,28
9,-9,15,-41,5,-1,-8,-11
-4,2,-15,23,6,-7,-4,20
51,16,12,2,-1,2,-4,23
2,-2,7,-15,-3,0,-29,-52
2,40,17,23,2,5,51,71
29,-34,-15,-11,-1,-6,13,25
29,27,9,-19,-2,4,-10,-88
-46,-68,-14,39,0,-10,-20,-21
-43,-17,-1,-21,1,-5,-17,-27
-20,7,24,-31,-7,-5,-13,-7
-23,14,4,19,-48,-14,3,37
16,37,-22,-29,16,-3,7,-10
30,9,-21,105,15,6,0,-5
-23,-30,29,-96,9,3,-21,-55
-12,10,59,75,12,4,12,14
13,-31,-79,-36,-3,-4,-9,9
13,25,-11,-27,-25,-14,-6,7
-14,-22,35,-11,-20,-9,4,3
2,13,37,-31,-17,-4,1,5
-6,16,3,25,-41,-10,-7,-6
-3,4,17,61,36,16,5,8
-18,5,33,80,19,4,11,19
-4,33,1,-54,-43,-8,17,8
26,-22,-15,-58,65,20,-16,19
105,15,-60,-4,5,-4,-33,-98
-114,-128,-10,-5,-14,-17,-34,-90
-14,3,24,1,-6,-3,-5,-1
4,12,-11,1,-7,-2,2,21
-3,-6,-12,-37,-18,-10,1,12
6,17,1,37,1,-2,11,19
-10,-9,42,-15,-11,3,6,20
11,24,4,20,10,4,13,23
2,16,13,-108,-35,-11,-13,15
38,11,-38,115,54,7,-20,-10
-26,11,-6,4,20,1,-18,-71
-38,-82,18,-23,-15,-5,-4,0
13,5,-29,-19,-13,-3,6,12
11,9,1,-1,2,1,-5,2
-13,4,7,-28,-16,-4,-5,5
10,11,43,6,-34,-11,-3,8
7,38,21,67,32,7,48,50
3,-12,-34,-38,43,16,16,34
-14,-70,-38,-36,-38,-10,-17,-58
-57,-36,70,3,-8,-3,-9,-29
-18,35,-49,29,38,9,-9,-22
80,23,11,4,0,-4,-21,-39
20,17,-63,-13,-14,-16,-19,4
-37,10,26,-8,-16,-11,1,2
-22,-13,-60,-14,-8,-4,4,-9
-4,-20,2,-6,-7,-2,6,12
7,-19,6,-18,-14,-6,5,15
2,12,13,4,-12,3,14,21
-40,-5,15,44,-27,-11,0,9
43,49,36,0,25,5,-1,-2
9,-39,-57,-19,41,9,-22,-25
-26,15,1,-11,-12,-7,-27,-19
-8,-90,7,-29,-18,-5,27,21
15,13,-23,18,-6,-4,-5,-25
-84,10,-22,-3,-3,3,3,0
-17,-6,0,-7,-4,-1,-1,-8
8,15,13,-6,-6,-3,-20,3
-11,12,9,-46,-10,3,9,11
4,13,19,35,-26,8,40,59
22,41,-10,-23,-10,-5,6,-5
44,-20,26,46,90,15,-37,-25
-30,-46,-1,45,50,-4,-14,-23
3,4,-116,-37,-16,-13,-37,-70
-38,-100,22,-18,-14,-5,-19,-11
-24,34,-9,-8,-15,-4,7,30
3,33,6,-6,-16,-5,10,-2
1,21,15,-19,-11,3,3,6
7,43,30,28,5,3,-2,12
3,-56,-11,11,4,2,8,14
2,11,28,13,1,1,23,20
10,2,-25,0,-1,4,6,25
7,7,10,-48,-14,-20,-20,-2
-70,8,-27,47,0,1,1,-13
-15,6,27,-90,-84,-16,5,13
20,0,-12,127,107,26,8,-8
15,-76,-27,-65,29,-3,-40,-48
9,-25,10,-12,-2,-2,-16,-15
-19,19,-75,-16,-17,-10,-18,-1
20,-11,-5,-20,-22,-1,40,19
1,22,9,5,-17,-7,8,17
1,14,18,30,-4,-4,8,14
-3,3,14,-71,-9,-1,0,21
-5,11,12,-50,-27,-8,4,28
-9,-16,-31,127,59,14,-9,-68
-3,2,3,-21,4,-4,-11,-11
33,3,-13,-13,-4,2,17,39
34,70,18,1,-18,6,29,70
-3,-6,47,21,-38,1,-5,-13
-38,-78,-86,-10,74,6,-24,-105
-46,-64,14,-15,-4,-14,-31,-39
0,4,-5,-10,-15,-4,6,12
7,17,19,-3,-12,-1,6,20
3,-8,-14,15,-35,-7,8,20
3,-7,-17,29,30,1,9,22
9,19,13,-22,-2,7,10,19
-3,5,4,7,1,0,-8,-6
6,3,24,-54,-18,-4,-11,-15
1,5,8,42,-17,-10,-1,4
-34,-16,-6,39,-8,-6,0,-6
13,-20,-29,-3,24,-1,-14,37
-14,27,18,-54,6,6,28,41
48,22,-18,20,-2,6,19,16
-7,-65,0,-5,-17,-11,-30,-105
-62,34,29,15,-6,-11,-48,-50
-46,-24,-84,-42,-15,-18,-34,3
-11,-20,17,-60,-52,-12,13,20
-6,-30,-34,21,42,5,2,36
-26,-12,0,32,13,0,-6,-52
-11,-1,30,-8,-25,-9,0,-17
2,40,-7,67,6,-3,-6,22
56,27,-27,-101,13,9,8,39
-6,17,-1,-20,-15,-4,-14,-48
-31,-4,18,-1,1,0,-2,4
-11,-11,-14,-29,-14,-8,-3,4
-3,-3,20,25,-34,-6,3,8
-2,3,-17,-31,21,8,3,7
0,-1,-23,3,1,-10,-21,3
-20,29,32,6,-15,-5,11,43
26,-7,-25,0,-2,-1,29,-10
21,-30,-43,8,32,2,-13,-57
-13,51,49,-8,-4,-7,-34,-43
-41,-17,-44,-4,-10,-4,-19,-10
-8,-13,-34,-107,-24,-8,-8,10
-5,-1,9,77,-47,-11,5,19
8,55,20,127,6,11,32,36
39,0,-21,-43,127,36,19,6
-25,-92,33,-30,-14,-15,-47,-30
-14,-87,-83,-22,-21,-10,-15,-39
-19,4,-4,-12,-19,-14,-6,-18
6,41,33,-7,-17,-4,1,2
-5,9,4,-7,-7,-2,4,16
-10,24,4,-3,-13,-3,1,25
50,14,23,12,11,4,-9,-21
26,-20,-50,-6,-3,-2,6,-6
-1,15,31,-1,-2,3,5,3
-9,-10,-38,0,-1,-8,25,14
3,-6,3,1,-6,-6,-6,-33
-47,-33,13,23,6,7,-2,-8
24,-45,-5,-24,2,3,-16,-6
-40,20,-3,37,-3,2,-13,5
17,17,30,-26,-60,-12,-9,-5
16,20,-30,46,74,14,8,9
20,30,22,-29,9,3,5,27
-27,-74,-3,23,-39,-16,9,28
-27,16,31,-13,36,-3,-19,-65
-1,39,-37,-39,-3,2,-6,-23
3,-8,-35,13,0,1,-2,-14
12,7,27,-119,-26,2,12,29
-5,19,22,127,-56,-12,16,46
-1,-9,-34,-55,124,29,16,23
26,-14,-39,-54,-5,-6,-23,-61
11,-21,18,-21,-24,-16,-26,-2
8,-1,-8,-11,-23,-6,4,20
-43,41,4,-1,-24,-5,-1,-4
-1,-76,20,14,8,-2,-2,4
12,23,-20,9,2,3,4,6
-11,2,0,-1,-12,8,-33,0
-7,-25,43,32,3,-4,23,9
56,-33,-80,14,8,-8,-2,7
-19,4,5,-6,-4,-8,-13,1
-17,-14,16,-3,-8,-4,-20,-79
-6,30,29,3,-3,-2,-11,-12
0,-16,-11,-30,-5,0,20,39
18,42,22,24,-43,6,5,56
-11,2,-35,120,19,-2,-5,-25
99,-46,-27,-94,63,9,-19,-35
-106,1,40,-17,-12,-8,-18,-17
-14,-33,-97,-17,-15,0,-6,3
-2,17,30,-25,-21,-6,4,10
4,-1,-2,13,-16,-2,4,6
-14,12,27,-40,-13,-3,3,18
-3,33,29,21,-28,-2,3,15
34,56,97,26,53,15,8,19
5,-9,-59,-29,-8,-8,-4,-19
-62,-78,-16,-26,0,-1,-7,-1
-10,-20,12,-12,-14,-4,-5,-29
5,18,39,-25,-16,-1,-4,4
7,12,12,20,-2,-7,-11,-19
9,25,4,-63,-13,-4,-7,-7
-22,18,5,41,12,-7,3,2
-4,-11,1,28,7,2,9,15
30,2,-2,19,-17,-5,13,41
-3,4,26,-93,-20,-7,-13,-20
-5,-10,-33,36,30,2,-39,-36
-15,34,-29,3,7,1,4,-10
18,-55,-8,-34,-12,1,21,31
-28,41,20,44,-31,-12,-32,-20
54,-40,-17,-38,22,0,-3,5
-29,9,-6,-26,-13,-8,-5,-12
-17,5,19,1,1,-1,-8,-28
-5,7,-1,5,-11,-5,0,1
-4,-41,-4,-31,-6,6,13,29
1,43,0,-89,-56,-13,9,-4
-2,-7,26,127,-4,-6,-20,8
-2,-54,-29,42,127,32,1,21
9,-59,14,-55,7,-6,0,-7
14,44,4,-29,-18,-9,-5,-7
-8,19,-9,-19,-20,-5,-6,-3
1,3,0,-7,-12,-5,2,2
-4,11,18,5,-32,-8,3,2
-3,20,36,54,-42,-11,-3,0
-1,4,7,-21,43,16,9,7
19,-12,-16,-39,8,13,24,37
7,3,-4,2,-25,-2,2,12
17,95,-30,6,30,-3,-39,-57
-8,-54,23,-11,-12,-1,16,30
-53,-56,-5,38,1,-2,2,-8
9,-115,-15,-11,-6,-8,-15,-4
16,15,-26,-6,-12,-11,15,-33
2,32,14,-4,-8,-2,-11,-4
6,29,13,1,-5,2,3,17
-3,15,2,-2,0,7,18,47
3,3,-4,5,2,5,14,28
-9,13,5,-17,-8,-5,-19,-24
15,-28,-29,27,1,-17,-17,-54
-8,3,18,-2,-7,-8,-13,-21
7,-14,-49,-47,6,4,14,22
-7,5,5,-22,-10,-1,-2,16
-11,48,16,16,9,2,-1,0
-3,-128,-5,-2,-29,-5,23,3
-69,0,-4,-74,-41,-8,-13,-27
29,15,-16,127,98,18,1,11
6,8,10,-90,-15,-6,4,19
18,34,6,-13,22,5,8,3
21,-41,27,-42,17,15,-4,-9
-71,-2,-49,47,-35,-7,-9,-27
-5,16,-12,-47,23,3,-2,1
14,-19,-40,-9,-17,-4,1,12
4,24,31,-2,-38,-9,-1,8
23,3,16,71,31,2,2,22
-37,0,-25,-16,-9,-7,-5,-13
-4,7,7,-10,-1,17,10,-16
12,-25,22,-18,-54,-17,34,14
4,9,-27,67,43,-19,-46,-48
22,32,8,-13,1,-1,-36,-15
14,-28,-29,-7,-2,2,3,13
-10,24,-11,-8,-5,4,16,13
0,-7,14,-3,-6,2,8,22
14,16,-7,4,-1,1,3,13
-95,11,0,2,-6,-5,-3,-38
10,-12,20,10,9,11,21,42
45,28,16,-2,4,12,11,53
-10,-27,-22,-7,-9,-16,11,-24
-16,-14,0,35,-1,-15,-44,-117
-9,-28,-26,-78,-8,-8,-9,2
1,35,-3,115,-2,1,4,19
3,29,34,-128,8,4,9,22
-3,9,33,127,-40,-12,1,21
36,6,-85,116,38,20,17,28
12,5,14,-99,68,34,19,23
-21,-3,-59,-56,-27,-21,-22,-23
1,-21,-7,-20,-28,-16,-21,-28
5,35,12,-10,-17,-5,-1,-8
-35,-49,18,-3,-8,-6,-2,-4
-2,5,18,1,-4,-1,3,2
5,21,11,3,-7,-1,1,1
2,-2,-12,-23,-15,-9,-6,-2
-1,5,42,37,-89,-10,1,1
1,19,-14,103,127,56,30,37
36,52,22,-47,1,5,57,65
51,14,19,-17,-20,-6,-22,-56
-104,-103,-72,-34,-16,-17,-52,-91
11,-6,-17,-73,-28,-22,-15,3
2,15,14,50,-4,-4,-3,9
-12,36,26,30,20,2,35,32
15,-9,16,-9,0,-2,-8,-28
-8,1,-7,-1,-3,2,1,7
9,7,5,4,9,7,7,15
2,-3,-9,5,4,2,3,12
2,8,30,2,-2,2,1,4
-15,10,-23,-19,-10,-5,-6,1
9,75,52,28,-7,19,27,42
37,11,-18,-22,15,-4,44,33
-48,-128,21,3,-23,-24,-59,-107
-73,19,-9,28,-10,-15,-44,-70
-13,52,-23,51,42,14,0,-35
24,60,3,-38,14,9,15,28
8,-31,16,38,-52,-5,1,11
4,5,3,-57,66,11,14,36
3,5,-5,-3,-42,-12,0,0
22,11,12,56,41,10,0,-7
-17,-11,7,7,-18,-6,-6,-6
-3,-11,-2,-124,-23,-9,-1,11
-12,14,-5,127,30,2,1,5
-4,4,43,-32,3,11,-7,-37
-7,-7,5,-13,-4,-3,39,16
12,9,70,-9,-6,-5,-13,-10
-4,-70,-110,-12,-17,-17,-15,-1
21,20,-8,-3,-7,-8,-1,5
32,-26,-4,2,-2,6,12,0
-26,-36,28,-7,-6,1,-11,-17
-31,-16,-45,-8,-5,-11,-29,-30
7,23,13,-38,1,-7,-18,-1
5,21,9,42,5,3,4,5
11,12,0,6,4,8,24,40
-4,7,30,-3,3,9,21,32
-23,51,23,20,-4,-1,-3,-19
52,-11,-87,19,-9,-5,-41,-40
-19,-41,-23,-21,6,-8,18,-6
-7,-49,40,-11,-47,-9,-4,-36
-21,3,-13,57,20,7,5,40
-19,-3,2,4,47,17,9,18
9,-17,-12,-23,3,-3,-16,-53
15,23,28,-68,-27,-11,-5,-1
-4,-15,-21,58,-14,5,5,11
1,24,34,-4,15,3,4,8
-14,13,3,13,9,9,6,5
1,-12,-15,-9,-9,-4,1,4
-11,23,10,-33,-39,-11,1,0
9,-27,45,48,-9,-2,2,26
-7,-4,-80,-35,27,10,42,8
18,10,-1,4,7,9,-5,-13
-21,1,-6,-40,-22,-7,-11,-13
-6,-27,-46,60,0,-13,-21,-34
0,11,-9,-15,6,3,-2,11
-19,15,2,6,-2,5,4,-35
16,10,20,3,-2,-1,-9,14
-15,-16,-7,-19,-17,1,26,58
48,-10,-11,41,18,8,31,28
12,16,27,8,-4,-9,-26,-60
-55,-119,-17,-12,4,-8,-29,-43
-9,22,7,-13,2,-1,-6,20
14,16,-20,-7,-7,-1,2,22
13,4,-19,3,-13,1,13,-4
-55,16,125,-53,-14,-11,-12,11
16,-25,-128,127,28,-6,-4,25
25,63,25,-91,-3,-5,-3,-14
-67,-32,26,-20,-22,-4,-2,-39
28,6,2,34,29,13,19,31
5,-6,11,12,-5,-1,-10,-31
-26,-11,-41,-7,-3,1,-5,0
12,17,18,-35,-13,-5,5,-2
-2,-5,-10,-27,-19,-10,-4,5
7,2,-8,74,13,-2,-4,28
-2,-13,-4,-41,21,3,-6,-20
-4,31,13,31,2,1,-5,-9
-4,4,-10,-30,-9,0,-1,2
-7,-22,-16,22,-2,7,4,9
-2,8,11,-113,-65,-11,-12,15
12,21,-28,127,48,5,14,14
15,-20,-17,-87,35,3,-9,12
-27,18,19,-20,-10,-10,-26,-26
-7,-19,-51,-12,-14,-2,-9,-31
-9,-22,25,-4,-12,0,-10,13
10,3,-3,-3,-11,-7,4,-3
15,34,8,3,-3,2,9,19
41,5,11,8,-2,2,3,20
-51,-16,-20,-30,-18,-7,-11,-1
-11,29,26,44,10,-2,-18,-34
-2,6,-2,-12,6,1,-3,-27
17,16,9,-31,-6,-4,2,11
6,4,-16,35,0,1,-2,5
5,37,59,7,18,2,3,4
-7,-72,-56,-12,0,-4,-6,-7
-9,18,23,-2,-10,1,-8,-6
-14,15,13,0,-4,-1,-18,-2
-8,0,2,-12,-3,2,16,5
17,12,27,-58,-111,-26,-13,6
9,28,6,127,127,29,7,-2
21,-7,-67,-66,9,6,3,-6
-38,-14,1,-22,-14,-3,-24,-20
-7,22,13,-33,-18,-5,-6,7
3,22,29,26,-9,-3,-7,-34
-5,-9,1,-17,-8,1,2,-2
2,3,-9,54,2,-4,-3,5
14,11,12,-31,-7,-3,-4,6
-13,12,-8,3,3,-2,6,24
6,14,-27,30,-8,0,13,52
50,-8,-16,26,17,2,-2,-46
5,-3,-5,-46,-9,-11,-35,-83
-32,25,-3,-42,-2,-3,-11,3
-5,-33,7,80,-13,-6,0,11
24,26,19,-7,15,6,13,9
-41,-37,-29,-13,-5,0,-6,5
-38,14,8,3,-3,-2,6,9
17,18,2,-14,-16,-3,-6,32
62,39,13,-30,-12,-4,21,40
4,16,35,-44,1,6,32,7
21,38,44,98,1,-1,-24,18
-47,-55,-101,-18,48,2,-23,-128
-27,-70,10,-34,-15,-8,-15,-31
-22,-9,9,-4,-19,-9,-7,4
7,25,13,4,-2,-2,5,24
-1,5,4,-47,-18,-4,7,20
8,21,33,66,-28,-3,8,31
54,42,60,7,32,18,16,19
-31,0,-128,-17,7,0,-10,-19
-14,-77,-15,-26,-5,-3,-9,1
-12,-41,30,-116,-60,-14,-6,-5
-15,7,-8,127,-31,-4,2,-2
5,33,48,-80,79,36,22,17
14,-19,-92,-34,-19,-16,-26,-31
16,19,17,-9,-16,-3,0,2
7,10,4,-1,-10,-5,-2,3
8,11,20,5,-9,0,-1,-3
1,-7,4,4,-5,0,37,40
60,-21,-25,-2,-8,-1,41,39
-124,13,-50,-10,-3,-3,-16,-27
-48,-46,-10,12,1,-7,-28,-84
-11,-52,-3,4,2,0,-3,-3
23,18,19,3,-1,6,12,24
25,12,5,4,-1,3,-6,-20
-51,-15,-23,-17,-4,-6,-38,-26
-4,34,20,2,-1,-7,-5,7
-3,-11,-44,41,4,1,19,13
41,35,14,-63,-12,6,-8,16
36,-9,-8,28,3,6,6,22
3,-46,16,-43,-13,-14,-14,-20
-25,-8,-14,98,27,3,-12,-10
-10,-14,-10,-63,-39,-9,-9,-5
8,-7,-13,34,59,21,11,5
2,40,16,-49,-14,0,-1,2
-22,-10,-32,99,-56,-25,-15,-8
21,36,19,-128,18,9,16,50
30,6,46,116,7,2,25,46
32,16,-36,-95,20,9,-19,-90
-107,-122,-104,-42,-28,-18,-34,-115
7,11,23,-5,-21,-8,-6,4
16,23,11,-3,-23,-9,2,17
13,15,6,7,-12,-1,5,21
-2,8,50,7,6,6,6,37
8,20,-2,7,5,9,12,10
-9,10,19,4,-2,6,35,10
67,-4,-32,-20,-17,-17,-19,8
-11,-37,-11,21,6,-7,-19,-13
-43,-27,13,2,-6,-3,-11,-23
2,-22,7,2,8,0,-6,-12
-4,-14,-18,-7,-3,-4,-1,-4
-4,18,-8,-5,1,3,-7,3
-1,13,-2,-3,1,3,39,17
-2,13,12,-3,0,0,14,22
13,22,20,18,-17,-7,3,39
-13,-42,-44,-17,-32,-14,-12,-39
14,-15,34,3,50,11,-15,-8
-1,-16,-29,75,18,10,-9,-32
-19,20,-24,-49,11,6,2,5
-21,38,24,39,-30,-7,8,7
-4,-26,-22,-128,23,7,6,15
2,23,5,19,-21,-12,-10,0
9,-61,34,2,-43,-13,-9,3
-62,-67,-7,112,74,23,6,2
45,19,-12,-59,-4,-5,3,6
25,25,54,-8,-6,-1,0,2
4,14,-83,-17,-9,3,1,0
-5,-23,-49,-5,-9,0,-1,1
-6,13,0,5,-10,-2,1,-2
-4,8,8,-44,-12,-7,-27,-14
-8,16,34,39,7,-2,9,17
4,13,42,36,15,4,-3,4
25,-5,-83,-19,3,2,23,-13
-11,-56,-10,-10,7,2,5,9
-5,-8,27,-6,-6,-2,-8,12
21,42,0,-1,-10,-8,-15,-58
-21,-29,-6,-6,-6,-3,-22,-27
-7,14,11,-79,-45,-2,5,22
16,8,-2,127,77,18,10,31
5,1,-2,14,-20,-23,-15,-11
36,11,3,-51,-7,0,6,-3
-60,21,6,50,-19,-5,-7,-15
-6,-18,-17,-49,21,3,-7,-5
-26,-26,15,-17,-21,0,2,7
31,-46,-35,15,-2,1,3,6
-30,0,-7,33,37,8,5,0
0,42,59,3,-19,1,26,50
20,-30,-86,33,78,10,0,6
3,4,-10,-6,-5,-5,-37,-93
5,-11,-31,-45,-15,-11,-34,-13
25,6,14,-21,-16,-6,3,9
-33,-20,0,10,-40,-9,-7,0
-13,19,34,101,22,1,16,10
-2,16,1,-26,5,0,0,34
-5,4,-27,-44,-13,3,1,15
6,-8,-5,-30,-14,-6,-12,-76
0,9,15,48,-9,-2,-1,14
11,-6,-8,21,11,-6,-11,-19
-14,-11,4,-18,-18,-7,-8,-4
19,0,-19,-4,0,-3,-2,0
-26,-1,6,-13,-5,-2,0,6
-13,23,18,1,4,6,-18,14
8,0,-8,-7,-5,-2,58,49
22,-30,-11,-4,-10,-12,-11,-37
4,26,6,-23,-18,-5,-23,-15
-17,-82,-33,32,-21,-10,-5,-38
3,3,-1,98,49,11,-3,3
-7,-15,0,-89,-7,-7,-5,5
-2,14,27,34,-6,5,4,10
-13,20,-13,1,34,6,4,0
14,36,69,-12,-6,-5,1,16
33,-44,-108,-8,-9,-7,3,24
-40,-64,-16,-4,-16,-3,-11,-34
-12,7,10,1,-4,4,3,5
15,-13,-5,-33,-13,-3,-5,-12
-19,-5,24,58,17,-1,-22,-27
-13,9,27,-58,-12,-2,29,28
-8,-2,31,65,-5,-1,15,42
7,0,-35,-28,3,-3,-11,-32
32,6,-40,-26,-29,-11,-22,-48
9,51,16,123,5,-6,-13,1
-30,-68,69,-81,46,18,10,11
17,-50,10,-30,-12,2,15,21
12,-61,-112,-22,-82,-22,-14,14
17,-28,-31,54,88,14,16,-8
-37,16,35,-19,-10,-13,-23,-25
12,37,44,9,-14,-4,-5,6
2,22,10,-68,-12,1,3,6
-6,-5,1,37,-1,3,3,0
-2,-4,2,-8,-6,1,0,-1
-5,-1,-2,24,-10,0,7,24
38,1,5,-56,-6,2,19,60
-1,26,-6,81,16,8,-4,-25
-22,-2,7,-57,5,-13,-41,-77
-87,-59,-41,85,11,0,23,-75
20,40,5,-55,8,4,8,21
7,-30,-16,-20,-12,-2,-10,9
13,-1,2,-6,-11,-6,-4,31
-11,12,12,-28,-16,-5,-8,10
16,40,35,-32,-22,1,14,27
22,-12,-27,94,56,5,29,11
6,59,1,-8,-6,-6,-16,-57
-25,-104,-12,-26,-1,1,-9,7
-4,7,-10,-15,-8,-1,-1,5
-5,22,36,46,-28,-6,4,2
-2,-28,8,-47,-6,-6,10,63
10,-2,-46,-39,-9,-4,0,-5
-3,31,28,42,-4,-9,-19,-73
7,-14,0,29,35,15,16,-45
-27,-61,-77,-40,-11,-4,-5,5
-12,29,25,36,-16,-6,1,9
-2,-19,-14,-32,-15,-8,1,12
7,2,-11,-1,-3,-4,-3,4
17,35,26,-60,-32,-11,-8,1
14,-7,4,10,-47,-10,-3,3
9,14,43,69,96,23,10,14
-12,16,-45,-77,0,0,6,12
18,12,-14,55,27,18,31,64
25,25,13,4,-19,-12,-38,-62
-61,-128,-40,-17,-25,-31,-27,-98
-30,-7,-20,-5,-14,-7,-11,-10
1,29,10,1,2,4,4,17
15,35,9,3,0,11,14,42
7,16,3,-5,-2,-2,10,27
10,9,3,2,3,0,-4,-54
15,29,6,-13,9,5,-21,5
22,41,73,37,4,6,14,14
-29,-29,-53,7,3,4,-1,-4
-10,-22,-17,-21,2,4,-6,7
-10,-49,-11,-8,-12,-10,-12,-7
6,9,46,-29,-7,-10,-3,2
5,5,-17,-83,-43,-9,2,4
-2,2,-17,127,26,8,4,15
-2,19,24,-37,16,9,-1,-6
-8,6,18,-2,-43,-10,-2,-3
28,-8,-17,-102,3,3,5,27
16,1,-10,61,64,10,-4,-34
26,2,3,-18,-4,1,-3,-21
-41,-2,22,-20,-30,-7,-10,-11
-11,10,12,-26,-40,-14,-5,9
5,-5,-24,42,59,7,7,2
-5,-6,-20,16,-2,-1,-4,3
12,-16,16,-54,-7,7,2,11
20,-12,-4,-12,-11,2,-4,7
-4,19,35,1,-7,-2,3,8
1,-25,-75,-10,-14,-10,1,5
0,30,43,36,14,-2,-6,-17
-5,5,-71,17,7,3,9,-11
-38,-14,-6,-10,-1,-3,-29,-12
9,-21,31,-62,-7,-3,5,7
3,-2,-7,66,10,-3,1,23
-10,8,29,17,-1,-3,4,24
6,41,-10,-12,2,1,-25,-49
18,46,72,0,1,-1,-5,-43
-45,-128,-70,-5,-10,-11,-4,-31
10,12,-15,-7,-6,-5,-6,4
4,38,7,3,9,2,0,6
-1,30,20,-39,-7,2,-5,6
-6,15,-20,42,11,-1,1,4
0,8,-2,12,7,8,7,11
23,3,4,15,-36,-7,0,10
0,-10,43,72,88,25,9,4
-6,-3,43,-58,-15,-4,1,-2
-2,5,-53,-57,-15,-4,-6,-2
0,-16,-34,112,-2,-1,5,13
63,5,36,-96,-8,-2,2,8
-99,-9,-40,23,2,-1,-9,-10
-17,-32,-12,-32,-21,-15,-13,-6
-9,26,25,-3,-21,-10,0,-18
9,21,37,53,-33,-5,2,11
37,-9,-14,7,56,23,17,36
0,24,41,-26,-5,1,-21,-20
-31,-38,28,-11,-24,-14,-20,-54
-2,-6,-5,14,21,6,42,28
-11,-32,-13,-10,-7,-3,5,19
17,-8,-11,-7,-21,-23,-33,-30
30,19,14,1,-5,-5,16,14
-12,14,25,7,1,0,-6,5
-2,15,13,4,-1,11,3,6
5,19,-9,19,4,3,9,11
35,5,-30,-28,-2,-4,15,28
15,-17,-21,-22,-12,-9,-15,-5
0,16,16,-19,-4,-1,-15,-33
-15,-17,-7,44,19,11,2,-6
-19,-1,-58,-2,-1,2,0,1
-1,-41,14,-14,-6,-4,4,-8
-7,29,4,5,-5,-1,1,1
8,10,3,-18,-7,-4,-1,8
9,37,33,-106,-108,-21,6,43
13,8,-18,127,118,27,22,39
24,20,4,-64,47,18,16,-48
-49,-103,-55,-44,-3,-14,-49,-41
2,20,-2,-54,-29,-9,-12,3
4,3,-24,17,-35,-10,1,7
-9,-39,46,82,39,11,9,13
9,33,-16,10,-8,1,7,11
11,13,18,-25,-17,-2,6,6
-4,-5,37,-22,5,2,2,4
-22,-17,-61,-41,-22,-7,-25,-9
3,3,29,127,-41,-15,-5,-7
44,28,-28,-36,127,25,25,18
21,-8,-70,-19,-10,-5,-15,11
-9,-82,7,-11,-20,-15,-16,2
-48,16,24,-6,-16,-6,-9,-20
-38,0,5,-1,-11,-10,-11,-41
-5,7,3,-6,-9,-7,-11,-3
28,35,21,2,1,11,9,43
28,7,-21,2,-1,-5,42,17
8,43,0,-1,1,2,-14,-33
-22,-84,18,5,6,-6,-16,-11
-41,-71,-42,-9,-5,-6,-12,-32
15,19,-13,0,-4,-3,-7,4
17,78,14,-15,-5,2,6,16
12,5,25,2,6,4,3,14
0,2,-4,-29,-17,-4,1,3
3,-4,-11,39,-22,-11,-5,1
10,6,-15,-123,-7,0,4,4
-1,3,24,127,41,15,8,2
-9,-20,-64,-102,26,6,-6,7
3,4,-22,17,6,-3,2,15
-30,-28,-23,-46,-24,-7,4,-17
1,11,67,12,-19,-8,-12,-49
1,-33,-125,-36,-1,-1,-6,-1
22,33,46,104,-39,-14,-5,3
-73,-7,-10,16,-2,-6,1,2
-3,35,17,-20,63,20,13,22
-11,-72,-10,-27,-6,0,0,0
20,35,27,-6,-12,2,-11,-23
1,0,8,-1,-11,-5,-6,-13
-10,-40,-2,-26,-20,-6,-5,0
-12,38,41,10,-15,-12,3,28
6,-13,-102,5,6,2,30,36
21,10,-18,-5,-8,-5,-28,-58
-6,6,13,0,0,0,-27,-56
-35,-19,20,-4,-4,-4,24,2
-31,-17,-14,-8,-3,-5,-1,0
8,17,-7,-5,3,3,8,24
26,32,-29,-2,3,7,14,25
1,-46,-16,-16,-7,-20,-20,-14
18,40,53,9,-6,-11,-18,-46
-10,-15,15,4,-4,-2,-9,4
-3,4,12,7,11,9,8,11
-77,14,-68,-22,-14,-4,1,22
21,12,3,-44,-22,-9,0,1
15,-41,8,55,-14,-5,-6,-26
-19,2,4,34,55,20,8,7
0,16,1,-1,-18,-2,1,3
-1,9,15,-46,-20,-6,-5,5
-22,-12,-8,-75,-20,-1,-3,-8
-2,-14,-61,59,5,-3,-1,-3
23,-5,3,-6,-5,-10,-3,11
5,8,7,127,39,14,17,23
7,9,45,-54,11,8,8,38
18,31,-33,-41,-13,-11,-30,-64
-37,-64,-10,-15,-17,-12,-20,-51
-11,-10,0,-40,-26,-13,-3,5
1,11,-29,40,1,5,4,15
2,1,39,56,-8,3,7,15
1,-8,-28,-23,0,-2,-26,1
-4,24,15,-67,-12,4,28,26
22,21,-30,50,37,18,36,33
11,2,2,1,-3,-17,-27,-13
7,13,26,4,-6,-9,-31,-9
-9,-95,1,2,-7,-10,-20,-50
-18,9,2,-5,-5,0,-10,-29
-9,-16,9,-5,-13,-1,6,9
11,14,-6,16,8,8,8,19
-4,10,5,5,-11,-9,3,31
13,22,14,-38,28,10,20,32
24,7,-18,72,8,4,8,-23
3,-31,29,-12,8,1,-23,-20
-26,23,9,15,-10,-5,-19,-44
5,-32,-20,-56,-17,-7,-6,5
-14,10,-18,-7,-22,-7,0,11
-4,-2,10,86,8,2,6,7
5,3,14,-42,10,9,9,7
7,21,22,-57,-4,-4,-11,17
-6,-30,64,47,16,-1,9,-4
4,10,20,-36,-24,-5,-16,-21
7,20,-66,-6,-12,5,8,5
8,47,29,-36,31,3,-2,10
-14,-95,-7,47,10,-4,-1,-8
-10,-17,-19,-14,-14,-3,-10,-10
-1,16,-25,-6,-13,-6,-8,2
1,9,16,-1,-8,-3,-1,-4
-1,3,15,0,-4,1,-2,-1
-7,13,15,-5,-6,1,0,-6
0,11,1,4,-5,-1,15,61
53,35,9,9,9,13,28,66
25,-24,-23,-12,-7,-11,-26,-87
-70,-4,14,-7,-10,-12,-39,-72
-2,2,28,13,-4,-6,-28,-7
-20,-31,14,-38,-26,-7,31,31
-4,-10,12,127,14,-2,-7,3
14,38,-50,-71,19,7,17,15
-7,-44,2,-41,-24,-9,-4,15
5,20,33,21,8,3,0,12
5,17,4,22,-1,1,2,8
-2,14,11,23,-22,1,5,6
23,15,-6,-63,-10,-14,-10,-3
5,8,-22,-9,2,-3,-3,-1
5,-24,-25,-6,18,7,1,-2
-11,14,56,-34,-26,-2,1,23
2,-33,-74,127,14,1,-2,-21
-7,-1,6,-128,12,-9,-10,-41
36,36,-28,18,-14,-2,0,4
-12,-20,11,-25,-1,1,-1,8
-8,-15,0,-16,-11,-6,1,6
-66,1,-6,-5,-14,-6,-7,8
8,2,3,1,-6,-6,-2,-8
2,7,27,-106,-79,-15,6,7
-1,-3,-28,127,89,24,17,20
26,32,46,-88,38,7,-21,-10
-2,-53,-90,-36,-12,-13,-35,-58
31,-39,-29,-19,-14,-16,-9,-3
0,72,39,-11,-15,-8,0,20
-19,-18,-77,-8,-12,3,-3,-24
5,-26,7,0,-7,-4,22,5
-16,8,9,3,-8,-4,-23,3
-17,-17,0,3,-2,-7,2,-20
39,33,13,10,7,9,21,19
34,25,4,11,-5,4,14,70
23,-18,-4,-10,8,-5,0,-5
-60,-3,-10,-1,-4,-6,-42,-98
-9,-10,28,12,-7,-9,-29,-18
8,11,28,20,18,1,1,-8
1,0,-54,-16,4,4,9,10
0,-8,67,-11,-6,1,5,16
19,3,-72,-28,-33,-9,-4,8
-27,-4,-1,23,-29,-11,6,17
-10,9,5,50,19,8,11,9
42,7,0,79,68,18,-2,-29
-13,-19,13,-96,1,-7,-9,3
-8,-4,4,-32,-18,-3,-2,0
-2,-7,-45,-34,-33,-11,-1,1
3,16,35,-28,-11,-7,-1,1
-12,8,49,8,11,4,0,-2
-9,38,26,76,18,3,0,-3
29,47,-25,-16,-2,-5,-1,4
27,-23,-12,-20,1,-4,5,10
-3,-41,16,-12,-9,-3,-15,-5
-31,-8,14,-12,-13,-13,-19,-26
3,30,25,-3,-8,-1,21,13
14,-6,-35,2,0,2,15,44
-26,12,10,-1,-1,3,-4,-4
20,18,5,2,5,7,-11,-16
-1,6,6,5,4,2,-2,21
16,-6,0,1,4,-8,-19,-74
-99,8,-6,-4,-4,-13,-19,-24
18,16,-6,-3,-4,-4,-4,9
3,-24,-2,-1,1,4,6,16
-1,-8,-2,-1,-5,1,8,15
-4,-15,-5,0,-3,2,2,6
-12,22,7,-103,-42,-16,-2,18
1,17,19,62,-28,-11,6,31
70,23,12,122,95,25,-3,-24
-27,-82,-8,-109,15,-2,-18,-23
-56,4,32,-119,-32,-8,-12,-14
2,18,-81,114,-3,-2,35,5
11,26,-32,19,-8,-5,2,7
10,9,21,-3,-8,-1,0,7
-4,15,50,-75,-41,-13,-3,-1
-13,-1,38,124,-48,-17,-8,0
28,31,-19,47,110,25,13,9
9,-25,-21,-31,5,5,3,15
20,-1,3,-17,-14,-5,-5,-12
-4,21,4,-12,-19,-3,-2,-3
4,15,59,-17,-53,-18,-13,2
-53,-38,-26,79,50,9,-7,-39
-22,-57,-51,-40,4,2,31,16
0,10,6,-3,-4,4,11,10
15,26,12,-6,-15,-16,-30,-25
63,20,25,8,-1,-1,39,44
-5,14,9,6,-5,-7,-23,-26
-25,-25,-37,-3,-7,-6,-15,-35
-24,-52,12,3,-1,-5,1,6
-2,21,8,2,-2,2,-12,5
-30,-5,-8,-36,-10,-2,3,12
28,34,6,14,16,17,43,52
51,-25,-7,42,13,2,1,5
40,-27,-4,-11,-5,-8,-24,-73
-82,-1,-17,-10,-10,-8,-25,-19
-9,10,6,-5,-9,-4,1,5
3,11,-4,-6,-1,-1,3,5
6,6,-1,-7,0,-3,5,9
4,0,8,-12,-20,-1,1,5
-2,5,25,-44,-63,-13,1,2
-5,-3,-21,89,72,9,2,7
11,23,21,-9,55,13,-3,-6
1,-36,-96,-36,-13,-3,0,1
-7,-27,-25,-5,-15,-2,5,15
-16,-25,-29,-78,-46,-16,-10,-22
-9,-42,-101,127,19,1,-5,-21
28,58,7,-106,-1,5,1,-4
-28,-23,51,-91,-81,-19,-13,-24
-36,0,21,116,36,-5,-6,9
36,34,-41,-21,16,1,3,-25
23,18,-4,-19,-13,-6,-4,17
1,-13,2,-11,-2,3,-8,3
6,-26,12,-6,0,6,4,18
3,19,-28,0,-17,-14,14,-5
7,16,9,-14,-8,-12,-33,-29
-36,-37,-7,0,-3,-4,11,-2
36,11,8,-2,0,1,-2,-5
-93,-7,3,2,0,-1,5,15
30,52,12,8,7,12,7,72
21,23,-13,-13,-11,-12,-21,-53
1,-4,-10,-3,1,-9,-20,-95
-67,-53,-8,-4,-4,-7,-14,-26
3,19,16,10,4,-1,-5,6
8,-44,31,-19,4,4,4,21
5,-5,-60,-7,1,7,5,22
12,13,8,19,7,6,7,14
3,3,1,-16,-6,1,4,9
-7,-3,7,-128,-55,-13,-4,-7
-8,-20,-22,127,14,-2,2,12
34,26,62,-9,30,2,-3,1
-9,1,-36,24,25,6,-2,-16
-1,1,-36,-39,-9,5,-1,-5
1,13,16,7,-16,-4,1,-2
-5,13,18,-21,-27,-9,0,-5
-9,-21,-17,35,31,0,-4,-4
-2,-41,-4,-32,-7,-3,-4,0
-6,0,17,-89,-43,-10,-5,-4
-9,-1,24,127,-29,-12,-7,-6
-10,18,1,-24,69,8,-3,-3
18,42,15,-17,-2,0,3,7
5,-56,5,-13,-8,7,8,7
-2,13,-26,-26,-21,7,25,29
20,14,-44,84,-1,-17,-11,-2
36,-26,3,-53,6,2,-28,-58
-128,-41,51,-2,-6,-12,10,-17
-25,25,-3,5,-5,-6,-16,-54
-8,6,-4,7,-1,0,38,20
48,1,-13,-8,-1,0,1,7
0,2,36,21,8,2,-2,-2
14,42,7,5,6,5,-2,8
7,-19,-9,1,4,-2,-1,9
-24,-27,-6,1,1,0,0,8
-12,9,-1,-4,-4,-3,3,4
7,8,4,-27,-13,0,2,2
6,8,1,51,-13,-6,-3,-2
22,4,1,-55,3,5,7,25
7,24,-24,40,20,0,-3,-5
25,-1,32,-39,1,-8,-21,-67
-57,-14,-12,-70,-7,-4,-13,-9
-21,-36,-47,58,12,3,5,1
10,-31,0,-6,-13,-1,4,3
-16,54,8,-10,-15,-7,0,3
9,7,24,-89,-37,-11,-2,1
-5,17,84,90,-62,-16,-3,10
8,-10,-101,94,127,43,26,36
26,5,-74,-66,3,-2,-13,-20
13,-27,38,-26,-16,-5,-15,-24
-19,12,8,-45,-31,-8,-20,2
-14,-80,-1,45,-35,-10,-6,-22
17,28,41,3,34,2,2,8
-2,0,-57,-14,-8,-5,-6,-12
-25,-3,-2,2,-5,-5,-9,3
-22,-23,6,3,-1,1,-4,-4
12,15,16,-27,1,15,61,32
15,21,-9,24,-11,-9,-8,33
53,7,-1,15,10,-2,-19,-5
-81,-25,4,5,5,-6,-6,-41
-6,-29,8,1,-3,0,-7,-15
-1,19,-75,-6,-8,1,4,5
1,-20,-6,-9,-8,-2,1,18
16,9,4,-4,2,-1,1,1
2,9,13,7,-3,-2,-5,-21
-6,-8,0,-2,-5,-6,-5,-4
3,20,5,1,0,0,1,-2
-2,13,13,-15,-10,2,0,8
0,7,6,-52,-49,-6,2,35
18,12,9,-19,52,12,47,28
9,-28,24,109,37,5,-2,-32
-65,-35,-38,-51,11,-4,-23,-64
-4,-12,-13,-5,-22,-12,-14,-4
-10,-12,21,-46,-24,-5,-1,2
1,7,-27,47,1,-2,2,16
5,21,32,-70,-16,-6,3,-3
-7,10,15,63,-23,-5,-4,2
-3,35,1,35,68,12,6,10
15,17,70,-21,-3,3,13,16
7,-47,-27,-1,0,2,3,-2
42,3,13,-7,-15,-6,-9,2
-43,-8,-68,-26,-18,-11,-10,-11
7,9,1,-12,0,3,0,5
-2,9,9,-3,3,-3,0,3
2,19,28,-17,-7,-6,1,-8
6,17,22,8,-8,3,10,3
-7,-2,-14,9,5,4,-10,12
-1,-33,-37,2,-6,-15,-17,-6
17,44,57,17,7,-3,26,-2
22,-4,-27,-6,-6,-5,-24,-6
-24,-25,-32,-16,-8,-4,8,-37
-13,-19,7,-6,-3,0,3,9
-7,-17,3,1,2,-1,-9,-5
-6,21,50,4,3,-2,-7,-14
4,10,-61,1,-2,-3,1,8
3,9,-2,-2,1,3,4,5
7,6,38,-128,-90,-20,5,40
-23,-6,-23,127,57,3,10,31
26,22,20,1,67,29,23,-25
67,90,-112,-16,40,6,-16,-12
-8,-118,20,-37,-29,-17,-28,-33
-97,-17,-14,-21,-29,-20,-19,-10
-9,-10,11,-12,-24,-7,-2,3
7,44,22,-12,-17,-3,5,9
7,8,-8,12,-6,2,8,9
6,7,-7,-5,-2,4,5,7
0,8,34,-32,-30,-9,-5,-6
6,0,34,54,20,12,16,10
12,28,46,-6,34,12,-3,25
19,-47,-97,-23,-4,-7,15,3
-43,-4,-10,-8,-11,-11,-22,-54
-2,9,41,0,-11,-10,5,-25
24,-3,7,-2,-12,-5,-10,9
-20,-1,24,9,5,5,1,11
4,-11,-63,-1,-1,1,-1,11
7,28,21,6,-1,2,-4,-43
-12,-44,-18,-4,0,1,-1,1
-1,2,5,1,-4,1,1,5
-7,10,11,-85,-34,-2,13,51
17,34,4,110,45,10,22,34
30,6,-41,14,20,0,-10,-57
59,-46,23,-23,-9,-8,-35,-55
-108,-63,-49,-31,-24,-6,-19,-12
-7,15,-14,39,27,-1,3,8
3,38,1,-11,1,-4,6,9
6,3,7,-7,-9,-2,2,10
3,2,12,-4,-8,-4,1,5
8,5,0,-34,-15,-3,-1,5
3,6,29,24,-69,-20,-6,-2
1,-3,-32,27,81,28,10,4
7,3,-8,63,102,26,10,4
-24,-9,13,-45,-6,1,-22,-6
-5,9,-45,-16,-12,-7,52,48
31,45,48,-62,-30,-5,13,39
56,-71,-66,1,-29,-14,-12,-47
-51,-37,-35,50,-7,-27,-51,-73
-25,-16,-11,-86,-13,-9,-21,-26
-30,-33,7,52,-3,-6,-21,-34
10,20,60,3,8,13,12,21
8,19,-29,5,0,-1,4,16
3,28,24,29,4,2,8,13
4,9,9,4,5,7,4,10
40,18,-12,14,1,5,13,24
-32,24,-14,-21,3,-2,10,18
31,-4,-7,-17,-6,-3,-3,-19
3,-41,7,-6,-10,-9,-15,-1
-10,-16,-9,-5,-5,-6,-41,-20
-17,-6,4,2,3,2,35,-5
0,9,8,7,-10,-2,2,1
2,0,-35,-22,-10,-13,-16,-13
-9,12,28,17,-2,-6,-5,-3
-3,19,62,-57,-47,-9,-5,0
-9,-23,5,127,32,19,12,7
44,25,-90,-126,80,28,21,37
13,-7,-41,-50,-16,-13,-9,-9
-41,-58,3,-23,-29,-16,-31,-70
-12,-41,17,-46,-28,-7,-10,-17
-8,-20,16,-40,-56,-15,-7,3
2,-14,-6,124,45,10,9,9
6,3,2,2,13,9,10,12
1,16,-1,-8,-15,-7,1,7
-2,-3,-15,-31,-13,-4,-4,5
-12,12,49,38,-18,-5,0,1
14,20,-18,-16,50,23,16,13
8,-7,-38,-28,0,-1,1,9
35,5,30,47,5,-2,2,37
-12,-27,-37,-36,-14,-8,-15,-2
-14,-13,-33,-50,-3,-7,-20,-72
-41,-8,0,41,-9,-10,-11,-13
12,9,8,5,-1,3,1,11
-13,-12,10,5,1,4,41,32
10,8,13,32,0,10,7,21
8,12,-30,-44,3,-2,15,-36
48,49,-33,-8,0,-4,-25,-19
-45,-77,10,-2,-5,-4,-5,-3
-26,-30,-11,-18,-6,3,9,10
-1,-20,3,30,-18,-6,-2,10
-14,13,-10,-13,30,-1,1,15
13,42,14,13,-6,-5,-8,-17
14,-34,4,-21,-10,-2,-8,-7
13,18,-38,61,5,3,-4,-4
-14,-40,-116,-55,-14,-3,-3,-30
-2,3,51,8,-7,-1,0,1
-4,-16,-61,-21,-11,-6,-2,5
-1,15,31,-20,-13,-5,-2,-1
-2,4,30,33,2,7,4,4
-7,-2,-9,102,82,13,-1,-1
7,13,5,-68,-7,-1,-2,5
23,9,16,-21,-12,1,8,22
54,38,-40,-21,-19,-1,-2,27
-111,22,-17,-14,-15,-3,30,-4
1,-79,-22,4,-1,-12,-27,-74
-52,-2,13,24,-10,-10,-31,-40
6,24,16,-39,-14,-7,24,8
4,11,7,26,10,1,-4,3
7,26,6,54,2,2,3,5
1,20,-6,-59,8,9,0,5
68,15,13,-8,-10,-3,18,70
7,25,-2,-2,-6,2,9,-2
-11,-37,5,3,-2,-6,-30,-61
-29,-18,15,-1,-9,-8,-16,-36
-3,12,-27,-5,-8,-3,-5,6
-1,-1,8,-22,1,0,6,9
-5,-14,-3,-11,-9,-2,6,10
24,12,15,32,5,3,15,23
-24,16,-25,8,25,3,-6,11
39,69,22,29,4,0,1,16
-118,-111,-39,-3,-15,-5,-2,-63
-13,-28,8,-112,-48,-15,-9,-16
5,-5,-45,42,12,-3,-3,12
6,7,-47,79,37,14,1,39
54,43,-15,-24,-6,8,49,2
-7,-18,23,-15,-10,-8,-19,-18
-7,4,-9,-13,-16,-9,-23,-10
-6,-1,1,-27,-14,-6,-2,1
-2,4,-3,-59,-36,-9,-2,3
1,54,106,127,-14,-9,-2,0
-7,51,-62,-43,23,12,4,-2
30,-77,-29,-67,78,29,17,17
15,8,-5,-21,-12,0,21,47
-45,-35,13,-9,-21,-8,-8,9
-45,-1,6,-8,-24,-15,-36,-81
10,56,1,0,-16,-11,-24,-57
34,15,11,1,-9,-10,-16,-15
-6,2,6,2,-1,1,7,18
-1,-7,-3,1,-1,4,10,19
-2,1,3,1,0,0,3,22
-12,-4,-3,-1,0,0,0,3
7,14,-10,1,4,5,49,24
16,29,1,4,6,0,-10,14
-14,-24,-5,-3,3,-7,27,16
9,47,-34,5,5,4,-4,-38
-13,-60,-13,-10,0,3,-4,-13
-49,-13,1,5,-6,-7,-10,7
12,12,-13,-12,-1,-11,-15,-27
8,3,12,-69,-23,-6,-8,-2
-8,53,23,-88,-46,-13,-4,23
2,-12,39,127,49,11,13,28
36,-18,-14,-61,61,20,15,-4
47,53,2,-35,12,9,-3,7
-53,-91,-88,-42,-24,-9,-19,-44
1,32,19,-17,-20,-10,-9,-8
-20,-32,10,-5,-17,-7,0,7
4,1,23,-43,-23,-8,3,9
3,16,20,15,-26,-11,2,2
0,-20,25,46,55,17,11,7
-6,-3,-50,-15,-11,-3,2,6
11,4,-33,-6,-4,5,14,15
21,-7,3,9,-5,-2,-7,-9
-59,-44,1,8,-6,-10,-31,-26
10,-1,-10,-10,-1,-8,-18,-19
22,35,18,13,-8,-4,59,44
-9,-41,-52,-32,-3,-2,-4,26
-7,1,9,-2,-11,-8,-16,-67
2,11,18,-13,-4,1,-3,-10
-1,20,-20,50,-7,12,20,29
44,16,6,-19,28,15,2,16
39,-17,43,16,10,3,-35,-111
-86,-8,-22,-10,-9,-16,-19,-19
-7,12,-30,-13,-4,-7,0,12
-10,7,-7,-16,-13,-4,7,13
7,25,14,10,-1,4,7,20
11,-54,30,-10,-7,-3,3,5
4,16,31,6,14,4,8,7
-6,-20,-39,-128,-22,-5,-35,-7
-6,0,-19,105,-42,-17,3,-12
22,7,15,-15,67,25,33,23
0,36,16,-17,24,0,-15,-23
-3,-10,-1,-22,16,5,-6,-1
-13,-25,19,-23,-11,-11,-6,1
1,11,-33,-32,-25,-8,-10,-8
14,25,4,30,-11,-2,-8,-13
-35,-24,13,-4,-5,-2,-4,9
-5,17,-9,-2,0,-1,7,-1
-7,6,19,9,-5,3,14,37
6,20,69,5,-14,-13,-7,5
59,-15,-31,-58,14,-3,-12,-52
-13,10,-63,84,17,6,-14,-31
-18,-52,-19,-34,4,8,2,-4
-11,-31,42,-5,-6,-15,-8,19
0,2,4,-1,-4,8,7,13
11,24,7,0,-7,-2,-12,-21
-15,18,-2,2,1,1,10,20
1,1,9,-1,-5,-4,-7,15
-6,-6,-7,-17,-14,-9,-11,-9
17,8,7,36,-15,-10,56,20
19,18,28,-32,20,8,5,5
1,15,-7,53,-4,-1,-5,5
-24,-15,-61,-21,8,3,-8,1
-30,-43,5,11,26,-6,-14,-45
8,0,9,-10,6,3,2,-9
1,22,19,-38,-27,-5,-5,1
1,16,-4,44,13,-2,-1,1
-6,-20,-38,45,13,12,4,-2
9,8,35,-2,-2,5,13,31
28,1,54,-11,-16,-15,1,52
-36,-14,-106,-41,-31,-10,-11,-46
-49,-71,16,69,-15,-8,-32,-116
0,3,15,14,40,10,4,10
5,12,20,-26,25,14,7,10
-7,29,14,-5,-4,5,5,2
12,51,0,-3,-9,2,-1,21
59,4,4,4,-13,-8,-6,23
19,-35,1,-6,-8,-14,34,3
-54,7,-4,-2,-8,-11,-24,-35
-6,63,15,3,-1,2,-10,-6
-12,-90,-22,1,4,2,-5,-6
0,16,20,-14,-16,-4,-6,0
-5,26,45,26,-9,4,23,37
25,24,2,-2,37,19,13,-13
28,-22,-10,-11,3,-7,-17,-19
-14,-64,-103,-20,-9,-12,-19,-12
-112,19,24,17,-10,-8,-29,-80
29,5,57,-2,-3,-2,1,13
7,14,-14,1,-2,1,13,21
4,-9,-4,-5,0,-6,0,12
6,10,8,-2,-1,-1,3,14
0,5,17,-128,-92,-16,0,6
1,-1,-4,127,61,9,0,13
0,22,50,25,62,19,5,11
1,-19,-58,-39,-2,2,-6,-18
19,18,-76,-35,-16,-5,-21,-7
-5,37,-8,-25,-17,-8,-5,-1
16,-80,48,10,-17,-11,10,7
-49,-17,-32,-1,-11,-1,-4,-4
-14,11,22,-56,-12,-1,-10,-9
-5,14,7,-41,-66,-18,-27,-15
-6,-10,-10,127,78,18,13,5
12,16,23,7,43,9,14,15
13,-14,-12,-25,-16,-11,-3,4
-4,7,11,-10,-9,-2,-1,14
22,35,11,-9,-8,0,-21,-33
-7,-11,7,-11,-10,-3,3,2
-7,1,7,11,-3,3,7,15
2,-87,-30,-28,-7,-9,-17,-45
8,49,-17,6,-5,-5,-14,-6
-50,-27,-35,-7,0,-6,-10,-5
3,21,6,2,-2,3,-4,-5
-4,-10,4,3,4,4,3,13
0,-10,1,3,8,6,37,23
3,14,22,4,-2,4,6,13
1,8,1,1,-4,4,6,12
0,5,-2,-3,-3,-7,-4,11
26,11,-1,-79,-20,-7,-5,0
-19,-37,-5,51,2,-4,-10,-15
-28,5,-10,71,33,1,-13,-26
-9,-4,-43,-28,11,5,5,-7
6,-7,10,-4,1,4,0,-5
2,2,-6,-62,-40,-9,-3,8
-10,1,14,106,-31,-11,-4,-9
-4,28,32,-116,75,27,19,5
-2,-21,20,83,19,-7,-4,0
23,-35,-96,-22,-3,-2,0,8
45,13,24,-11,-10,1,2,11
-61,-38,-21,-12,-19,-4,-5,-1
-19,-39,14,-6,-15,-8,-9,-22
-4,14,11,-24,-11,-8,-35,-2
-21,9,20,5,-21,-5,30,-9
16,23,37,50,14,2,12,4
6,-4,-3,21,13,6,13,40
12,4,4,-30,-1,3,6,-22
-70,-15,-52,-9,-1,2,-20,-25
-30,12,40,-6,-5,-12,-30,-39
6,-17,-36,-6,-10,-10,-6,6
15,-3,15,-1,-6,-3,4,18
-10,1,-33,5,4,7,6,9
0,9,18,12,20,11,15,14
36,-4,-43,-5,2,1,6,11
2,-33,-23,-9,-6,-11,-16,-17
-22,-5,13,-3,-7,-5,-13,-13
-1,19,25,-11,-14,-4,-8,1
4,13,-15,-35,-30,-5,71,28
7,13,19,61,-2,0,-12,6
0,-35,-68,-8,53,12,0,5
-9,-54,-8,-37,-5,-1,-10,-28
-18,-11,24,-29,-41,-12,-14,-6
5,18,6,64,26,5,-5,-1
11,20,33,16,1,-3,1,1
18,-1,-14,-88,-33,-8,4,20
-7,27,11,66,-45,-17,-5,9
-4,-18,-22,43,122,31,5,-19
26,-6,-36,-37,-5,-4,-12,-37
-11,53,38,-5,-19,0,2,1
-1,-33,-54,-41,-12,-5,-4,-1
7,-21,-30,-6,-1,-4,0,6
-8,-6,20,4,-10,-3,-4,1
-3,21,0,-1,-7,4,5,3
-7,15,19,7,-38,-7,21,43
15,-14,-16,37,49,4,4,15
50,15,-17,-5,12,1,-33,-52
-31,44,48,-3,-3,-2,-21,-11
-46,-80,-59,-6,-8,-5,-21,-28
-14,10,-1,-4,-3,4,-11,-2
49,23,4,-9,-13,-11,11,11
-59,-11,0,-5,-4,0,17,23
17,-3,5,5,-2,-5,-10,-3
0,20,5,5,-2,6,-3,14
-10,2,-7,5,-7,-1,-3,17
-19,5,21,-6,-8,-11,-1,-9
38,-31,-6,-17,0,-3,-11,-25
-29,-14,-10,28,30,10,-14,-29
-14,-12,-46,8,-6,-7,-6,3
-4,-10,-5,-55,-17,-3,8,7
-4,28,5,-23,-36,-9,4,4
-13,-4,25,84,-5,-7,6,33
2,-26,81,99,44,11,4,5
8,-16,-96,18,55,11,-13,-60
-15,22,-10,-42,-18,-8,-12,-53
-12,-8,-12,-27,-28,-7,-2,-2
-5,7,32,-13,-30,-6,1,8
4,11,20,29,23,2,2,13
2,-9,1,-2,0,1,7,22
12,-9,3,0,-7,-4,-6,-9
6,18,-10,1,-2,-4,-6,-6
14,48,10,6,7,9,7,5
-3,-52,11,-4,-5,-4,-5,6
5,-4,-14,-1,-3,-5,-33,-21
-109,-32,23,-11,-26,-23,19,-16
7,43,54,22,17,10,28,37
27,13,-107,-41,19,11,10,26
46,-64,11,-1,-4,-2,-25,-62
-19,54,-7,6,-7,-10,-20,-27
11,26,-5,-2,0,-3,-4,-6
-13,-3,18,-5,-8,-4,3,25
1,-19,8,-11,-7,6,14,29
13,25,25,3,-8,9,9,-29
-8,-12,-25,-11,16,2,-10,0
-37,18,6,35,26,1,-4,-13
-6,-27,-11,2,-7,-8,0,0
3,6,-2,-23,2,4,5,9
4,17,32,-3,0,2,-12,4
-5,-24,-29,-24,-4,-1,33,15
2,9,-8,-9,-45,-14,-3,-2
13,28,17,26,-2,-11,0,9
28,-26,23,47,63,21,8,18
-24,-50,-52,-85,-20,-9,-21,-45
-11,2,6,-18,-16,-9,-14,-11
-1,6,-20,-14,-19,-10,-5,-4
0,-28,34,-2,7,3,6,13
-10,19,22,9,-4,4,22,54
10,-15,-2,-4,-5,-3,-1,3
-70,26,-17,-8,-8,-14,-35,-98
1,-24,33,24,3,-5,-18,-16
-5,-15,-9,-7,-3,2,3,12
3,22,10,0,2,5,-13,9
11,6,2,-6,-5,4,14,21
2,12,9,-2,1,3,15,39
1,-3,2,-3,1,-5,10,-4
16,16,-1,-4,-7,-7,-6,-18
6,0,18,-20,-23,-12,-19,11
16,16,-1,-4,-7,-7,-6,-18
6,0,18,-20,-23,-12,-19,11
-13,0,-11,81,6,0,8,33
-2,-17,0,-14,20,-2,2,-18
