Channel_1,Channel_2,Channel_3,Channel_4,Channel_5,Channel_6,Channel_7,Channel_8
-3,-3,4,-1,-2,-2,0,0
1,-13,-12,48,-11,15,90,1
-48,1,5,-49,27,-36,-57,59
48,-4,-8,-7,-128,-43,-7,89
-6,-36,-27,-127,-60,-105,-48,-97
12,28,38,127,127,127,127,119
-7,8,-14,-58,-45,-26,19,4
7,2,4,-22,-128,-89,-128,9
17,16,-2,-10,-97,-29,-30,-35
5,4,4,37,93,43,51,-28
-13,-20,-22,-7,-14,-23,-49,-22
-5,-3,3,-56,-39,-20,-2,-49
-19,-26,-23,-57,27,16,72,-35
-2,-13,-16,14,101,-13,-95,-21
14,4,6,-22,-125,-26,-2,14
-21,-1,-5,1,-28,19,-3,-30
-43,-18,-10,-27,20,-29,-39,-84
-2,-12,-16,-42,-128,-41,60,73
52,21,8,75,127,37,-67,-57
26,17,12,9,-71,-7,-30,29
-18,1,1,-27,-43,-37,5,56
15,-20,-10,-54,-50,-11,-15,-8
-10,-15,-4,-14,-35,-4,-2,5
-4,-11,-2,-36,124,22,14,8
-26,-2,-15,-24,-128,-49,37,-2
12,22,12,76,63,43,-10,59
7,4,2,37,63,13,23,-6
19,-2,-6,-19,44,-25,-49,2
-2,2,7,58,127,59,31,66
3,-19,-21,-54,-128,-28,3,26
-19,-18,-22,-14,-48,-6,-22,-70
-40,-21,8,-47,114,-13,-55,-65
22,12,14,26,-46,-23,25,75
18,23,13,77,127,43,-16,94
-23,-10,-14,-46,-8,-7,5,-99
-16,5,-8,-10,-96,10,38,-22
-8,-37,-30,-25,0,-25,-30,21
21,2,-10,-9,-128,0,39,19
-18,50,46,15,-6,11,13,-64
-22,-16,-6,-68,104,-26,-73,-62
8,4,-8,-17,-128,-45,24,21
28,25,39,125,127,104,44,93
32,-15,-24,-43,17,-2,-22,-90
-3,8,-18,-49,-4,-44,-62,-48
-11,-15,-4,-26,-128,-91,-45,-7
-31,13,-11,95,127,90,19,-111
55,-7,20,-16,-76,-20,41,127
13,26,5,16,36,14,-6,13
50,9,1,-12,6,-4,64,125
-34,-14,-22,-17,1,-23,-74,-110
21,26,-21,-70,90,-58,-27,43
-8,-31,-10,84,-128,33,20,-23
-13,12,41,27,127,12,8,2
-14,8,-5,1,40,24,119,7
-25,16,26,-36,6,-38,-54,-119
-16,-27,-10,-48,9,-12,-1,-18
25,-3,-24,32,-3,20,21,14
5,-14,-20,-67,-128,-55,-16,-40
-15,10,25,77,127,82,-12,-5
-18,-22,2,-55,-82,-1,-2,-96
16,-17,5,115,127,55,-37,-20
12,11,-12,-32,-51,-37,-28,112
-12,21,34,10,113,14,-54,-54
-14,-21,-23,-19,-27,8,21,0
33,8,-8,-4,116,-19,-26,-25
22,22,-3,-2,-3,-27,-29,62
-14,-6,1,27,95,43,11,-9
-29,-17,-9,-35,-69,-1,38,-15
38,-1,-14,12,127,28,38,64
-23,-14,2,32,127,40,-2,-14
-8,-2,-7,-34,47,-7,-35,-38
-5,-5,-6,-128,-39,-96,-66,-75
81,-2,9,127,-128,30,76,127
-59,11,25,48,127,46,72,-128
-9,-9,14,-37,-57,-27,-17,-59
-5,15,-5,-26,-28,-15,-19,-5
15,-3,-14,-26,-24,-26,-45,10
-11,10,2,-19,-58,-6,37,40
-18,-7,-4,10,23,8,-53,-39
6,17,0,-28,127,23,-45,-47
7,-14,-58,-2,-128,-50,-30,-56
-2,3,2,24,69,21,23,-13
2,11,41,23,73,5,-21,16
-14,-25,-17,29,0,5,-10,69
-26,-25,-24,-103,127,-63,-128,-128
36,9,-15,42,-128,4,38,127
0,-1,-2,0,127,27,14,-14
-15,12,39,127,127,56,39,-17
-1,-14,-11,-8,24,3,-4,37
-24,5,-16,-41,46,5,-4,-14
-2,-19,-12,-26,-65,-44,-26,9
50,7,8,28,-40,29,35,58
8,-4,-12,-114,127,-57,-31,52
2,3,1,70,-128,15,19,6
-7,18,-29,-23,-33,-21,-17,17
-30,-12,-5,58,-13,2,-10,-62
-2,-4,17,30,116,38,11,-37
8,1,1,-32,-16,-4,-5,-18
-51,9,31,-47,-128,-58,-91,-128
60,15,6,45,92,65,127,127
1,-21,-19,-56,44,-54,-105,121
-7,-40,-12,-18,-128,-54,-15,-20
4,16,-19,41,127,52,-13,-19
19,19,26,26,-15,1,18,53
-28,-6,8,-6,5,-11,-38,-58
-4,11,3,-30,99,-1,-33,-16
-11,-5,-29,-70,-128,-77,14,4
-39,-18,-3,53,127,100,127,-95
34,15,-22,5,-128,-25,-50,86
-13,-43,-38,-34,-20,-17,-27,0
22,-13,32,-2,28,0,22,40
-13,-6,-19,-42,94,14,-21,19
12,2,-20,-1,-128,-54,13,14
-10,7,-3,59,87,23,-4,-4
-30,4,-20,-13,17,-9,-2,-3
-15,-31,-16,-128,127,-53,-39,-61
5,-2,17,127,-128,97,92,48
-4,5,25,45,-38,2,-22,9
-21,-2,-13,-22,-10,-9,-63,-73
19,8,4,-42,54,12,64,-44
-1,24,-28,-84,-128,-73,-32,127
5,-61,-2,-11,-128,-40,43,-39
2,27,11,110,127,77,1,5
-10,18,1,-5,-14,-9,-50,-80
-47,-9,-8,-34,-32,2,-11,-89
59,11,-4,-9,-62,-21,26,127
-2,1,-2,-18,-42,-14,-9,16
15,6,-17,-32,-2,-6,-3,9
10,-9,-13,5,-61,-15,-3,76
-22,-1,33,20,10,16,-5,-78
-1,-4,5,-5,-5,-16,-47,15
-35,-20,-4,-10,37,19,67,-109
-47,-14,-43,-32,105,0,-79,-128
31,27,35,33,-108,-25,75,23
37,14,19,40,3,22,-18,19
3,4,-2,-5,-36,-3,15,89
-33,-20,-27,-23,72,9,-9,-63
11,-19,-9,-96,42,-50,-54,23
7,19,-3,127,-86,71,89,109
7,-2,13,31,98,24,6,-13
-4,-26,-8,-26,-26,0,9,16
-25,24,13,-116,102,-59,-50,-15
-12,25,-18,34,-128,-34,40,-27
-2,-42,8,69,127,28,6,3
-8,-12,13,-32,63,24,33,-19
14,1,-27,2,-128,-47,-80,28
-5,4,-9,-78,117,-28,-82,38
-15,19,-5,-64,-128,-50,-31,-98
52,31,31,127,127,116,91,1
-5,-6,-3,30,35,13,9,5
-46,-23,-10,-52,2,-36,-77,-128
24,15,-41,-58,28,-22,24,81
29,4,-11,65,-99,30,54,56
-11,17,21,44,110,24,-14,-23
-13,-6,5,-11,9,9,60,127
-4,-27,-1,-25,-33,-38,-73,-73
-16,2,-43,-31,-36,-12,-6,-30
8,20,21,3,27,15,19,10
-25,-3,5,-3,-44,3,-17,-51
45,5,-2,-15,-45,-14,-18,70
10,-19,-14,-4,13,7,2,20
-28,6,-27,-24,66,19,-23,-128
-41,-8,25,-13,-24,4,119,-84
51,-1,-13,117,127,49,-19,101
5,8,6,1,34,-2,30,81
-7,5,1,-46,23,-24,-40,-9
17,-7,-18,15,-21,38,37,-7
18,-12,-4,-23,37,7,-8,-28
-25,15,10,-31,87,-18,-32,-22
-16,-11,-4,70,-14,8,16,-2
-13,-6,-9,-2,-54,12,39,-8
24,-4,19,19,-108,-14,7,78
1,1,-29,-33,-43,-40,-38,-78
-11,-22,-22,-128,96,-36,-15,22
-7,-2,36,120,76,68,75,27
43,16,-1,121,127,120,96,15
39,23,4,-24,10,-30,-9,81
0,15,8,-3,14,-1,-1,-14
-12,-36,-25,-26,-14,-9,-34,3
-49,-12,-25,-37,17,-1,-9,-128
15,22,0,-17,-117,4,86,127
-4,-18,12,8,67,6,-19,-20
-34,-6,-15,32,64,25,-5,-128
36,11,16,-11,8,-1,6,85
16,8,18,-26,10,0,-18,42
-25,-25,-26,27,73,14,-5,-128
17,27,63,-28,-77,-39,-26,37
-18,0,-43,1,-128,-17,43,-23
-22,-7,8,17,127,16,-47,7
23,9,-7,-18,-85,-39,-29,-47
7,19,22,70,127,89,104,42
-20,15,-8,-93,52,-61,-70,-50
14,-21,-40,34,-3,68,52,39
11,12,24,69,76,48,-7,37
0,-2,53,51,41,9,-30,-23
4,5,-18,-29,0,-13,-15,-40
-3,11,-5,-50,-23,-14,-4,-69
-5,-6,17,52,-41,26,1,-30
7,-21,-14,-43,33,-14,-31,16
-11,13,-8,-7,-65,-19,2,-17
-1,9,0,38,110,36,-10,-2
8,17,-2,5,2,-3,3,22
6,-12,11,-20,-12,2,28,72
-38,-22,-13,-50,-8,-47,-19,-17
36,-4,-2,41,-128,33,38,93
-20,-16,2,7,68,38,30,-91
-26,-25,-38,-22,-82,-26,-19,-58
31,17,34,16,53,-18,-42,23
2,13,0,5,31,19,23,14
-44,-11,-27,-38,-54,3,81,-122
6,-17,3,-27,127,2,-23,-34
-13,29,32,14,-96,-10,-25,-56
-28,-43,-8,30,-6,10,-20,-24
47,-12,-36,-20,-15,-3,67,64
-7,-16,-6,-24,47,8,-14,1
-12,15,5,-85,5,-68,-77,-34
-28,-37,19,42,-128,-37,25,90
24,73,5,99,127,84,42,-6
34,4,-6,-4,37,-5,-12,44
-11,-30,-27,-63,34,-4,36,-8
-8,-18,-22,-40,-110,-35,-29,-15
-9,-6,-31,1,44,-3,-45,-35
3,33,96,93,127,74,21,8
12,18,22,95,127,47,20,-6
-31,-39,-23,-37,-9,-7,-5,-49
-15,-5,-10,-25,-38,-19,-13,-29
37,2,-28,4,-60,-3,8,49
-26,-23,1,-56,28,-10,-29,-85
-14,-12,-36,-20,-56,-2,27,-22
-37,-15,14,-29,-128,-51,19,-38
95,14,54,89,127,49,11,127
16,11,9,0,-12,5,15,-22
-4,10,-21,-37,69,1,-5,15
-59,16,-9,-17,-126,3,99,-128
27,-13,6,58,125,10,-75,-16
-3,-41,-11,-10,23,-15,-15,81
19,39,5,-3,5,-1,-13,6
0,19,-16,-13,-1,-2,-10,-15
-17,-13,-33,-32,-18,-8,16,-33
-6,2,36,3,-59,7,34,24
-1,-1,28,-11,-128,-22,18,8
-9,12,12,8,116,26,-24,4
-17,-56,-29,-35,-128,-34,-7,-47
27,4,-3,55,107,9,11,44
12,-10,-8,19,59,42,19,-55
-1,13,-5,-11,-29,-2,-1,-19
-18,-10,16,-24,-10,-38,-30,7
-37,-6,-17,-61,-128,-23,-4,-77
-17,-25,1,9,-128,-2,27,-32
27,11,19,2,6,-44,-70,18
-7,-6,-22,-32,-83,-13,16,-36
-17,3,-15,-126,98,-43,-56,-48
-31,-30,6,99,-128,29,10,-31
31,21,59,61,127,58,93,37
17,15,-10,-26,-13,-8,-12,-44
-9,19,-7,-49,-14,-13,0,36
-43,-42,-42,-62,-5,-41,8,-11
6,-20,-4,52,-128,52,50,-128
58,35,30,17,125,27,-5,-1
-9,1,-25,-22,-27,-19,-35,13
-17,-25,-29,-128,110,-85,-101,30
-15,-20,27,127,-70,112,63,-94
20,-21,-27,-22,-41,-55,-72,49
-2,27,14,22,127,33,3,5
-3,21,29,-16,-15,-8,-13,4
-25,-18,-20,-37,-25,1,-7,-86
-19,-25,1,-63,85,-16,-19,-84
-13,-31,-52,31,-128,-21,2,-35
5,-6,-15,22,79,31,29,40
10,-8,15,8,-2,4,-2,-15
-38,-2,5,-59,10,-28,-31,-7
4,-10,-7,-5,-116,-35,4,37
52,14,-5,82,98,35,-13,-1
3,3,-27,-38,-63,-30,-25,-38
-36,4,39,10,-35,12,-19,-35
-4,21,-9,28,59,-26,-100,2
22,-10,-1,-41,23,-7,23,83
-2,17,7,26,-15,8,1,-2
36,20,-3,8,-40,22,83,4
3,-3,-14,-1,-9,-13,-43,16
-12,-15,5,-11,-27,-16,-27,-39
-8,-29,-2,-14,-43,-33,-66,-34
-32,-4,-39,-125,55,-53,-32,-110
-12,4,32,83,-128,21,66,-11
16,-29,-5,19,2,-4,24,78
-14,-33,-7,-6,0,18,0,-68
-10,13,-15,-12,-18,8,12,-34
-17,-2,-32,-42,-5,-37,-30,12
-9,1,5,-92,25,-41,-29,-52
11,-10,-16,-4,-128,-65,78,-35
35,23,-36,104,127,62,18,49
2,0,68,-10,65,7,-23,15
-13,-10,-9,-13,-29,-14,-22,-56
-17,-19,-41,-40,-75,-35,-53,51
-10,3,17,-26,-69,-25,-24,8
6,26,-4,-40,127,17,-19,1
1,-3,-3,27,-128,-45,27,17
5,-8,-20,56,127,55,14,30
-25,-38,7,-16,48,-3,-17,-31
8,17,-16,-8,-78,2,51,68
-12,26,0,15,-1,4,-27,-128
-6,-16,-13,-30,-41,-21,20,57
-1,-12,16,-24,8,-18,-19,43
-27,12,3,41,-128,27,36,-128
16,4,-15,-14,-7,-33,8,22
-14,-28,-34,-6,0,-18,-33,-1
19,51,62,4,18,-2,2,-20
-25,-44,29,-30,4,-7,-33,-1
0,-10,4,-12,5,10,4,-57
21,8,-6,28,-128,-15,27,42
-21,-4,-14,26,115,21,-23,-40
10,1,-12,46,-9,34,51,77
6,15,40,-5,87,18,24,1
53,32,-19,-4,9,-11,0,85
-8,12,3,-28,83,-6,-22,-23
-18,-11,6,-54,-128,-65,-22,-36
-29,-40,10,35,84,34,24,-63
-34,22,16,48,53,0,4,-86
8,5,-17,-32,-18,26,56,27
26,-17,-21,-5,59,-15,-61,56
0,-2,-10,-19,-28,-21,-47,53
17,13,-11,-36,-81,-19,-6,-3
-7,-6,-8,50,12,34,22,-2
-23,-12,-33,-93,-47,-31,-19,-75
-23,-10,16,101,58,55,73,54
12,32,51,4,12,-13,-23,-54
7,4,-19,-9,12,-1,-24,-23
-13,-30,32,-31,48,-16,-1,-33
-27,-3,-36,-73,-128,-65,-29,14
8,-10,-11,31,127,49,127,23
9,20,14,80,127,103,42,22
4,12,15,-11,-110,-23,-21,-4
0,24,3,6,-96,-17,-30,17
-20,-23,8,-8,-11,-3,-17,-64
0,-16,0,-30,-11,-18,6,47
-4,14,-15,-48,-73,-19,11,22
-1,39,12,-25,-22,-18,43,7
-10,-12,-32,4,-110,-27,-5,-13
2,5,24,127,127,104,70,5
34,-36,-15,-9,12,3,16,31
-7,0,-56,-50,-32,-44,-39,5
-24,13,67,-15,5,2,-45,-95
-2,-32,-17,-12,-99,2,34,-2
-8,6,-35,-49,-55,-34,-19,17
52,3,94,89,64,34,24,4
6,16,-32,-2,-2,-9,-2,48
-10,-6,-20,-32,39,-33,-78,64
-92,-56,-57,-95,-81,-41,-64,-128
13,-6,15,66,39,39,62,111
30,16,-10,13,98,10,-18,0
-14,-8,-2,-17,-31,-5,0,-52
-15,-13,-32,-84,1,-68,-40,28
-1,9,21,117,60,94,35,-19
1,5,-38,10,4,10,57,64
6,12,3,-46,44,6,10,-91
1,-2,62,7,-128,-34,-19,31
42,-4,-26,-3,127,36,35,14
-7,-12,-2,30,19,11,2,8
-15,-16,-21,-19,-26,-25,-34,-26
1,5,-5,6,-2,53,58,-25
-20,-2,5,-24,-44,-46,-42,-24
-20,36,-2,-6,-44,-12,-8,-48
4,-21,-5,-2,8,-2,-11,107
-2,-11,-25,-56,12,-46,-80,-96
4,13,-7,33,-72,7,27,-32
4,-7,13,48,28,28,73,81
-15,5,-27,-21,48,20,-23,-6
57,34,4,12,-11,-22,-17,26
-16,5,10,20,83,22,-5,-50
-7,-31,-39,-31,35,-16,-47,4
-19,-7,-19,-21,-57,-21,-42,-87
-28,-33,-33,-110,-127,-61,25,-40
3,16,33,127,86,28,-1,23
35,32,33,93,82,36,24,10
-15,-2,-2,-1,127,18,-14,-11
-2,-15,-28,-44,-10,-20,-21,21
-36,-26,5,-37,-7,-11,-29,-126
2,-23,18,-24,-32,-31,-50,41
-31,-19,-44,7,29,28,40,-67
44,24,13,7,-17,5,51,127
-26,-14,1,-1,20,-8,-54,-128
4,-16,-16,3,0,-6,-32,-32
15,12,19,2,-8,26,100,6
-8,0,-23,-16,107,-3,-81,-36
3,4,21,-72,-128,-76,-18,-61
6,-14,-3,124,127,87,18,-10
-11,17,13,-2,-93,-19,-3,-9
23,34,38,-27,84,18,4,4
2,-9,-8,52,-95,7,16,75
-24,-12,14,-18,56,3,-11,-82
-3,-5,-20,-71,64,-37,-58,42
7,-11,-42,30,-128,-19,42,5
12,21,44,32,109,18,19,6
-10,-14,-12,-10,39,8,-1,-7
-32,-8,-47,-37,0,-15,-41,-93
-17,-4,18,-38,-84,-44,-10,-3
42,-8,20,6,-52,-35,-13,86
7,39,-8,4,54,0,-4,23
-37,-39,-24,-23,-41,9,23,-63
-4,1,-7,27,-7,43,22,39
15,10,-8,-50,53,-8,-20,-87
16,19,3,43,-128,-22,-6,8
23,33,38,26,83,5,-13,-19
-13,-11,-1,-35,12,-9,-15,-47
-30,-37,-40,-53,-23,-23,-8,-53
-6,-26,-28,90,127,74,21,127
13,28,39,-5,-34,-12,-9,5
5,25,49,4,83,22,36,65
-18,-1,-36,-80,10,-60,-63,-35
19,4,41,14,-128,-38,5,-32
-9,-36,-16,98,127,76,2,-40
-13,-4,-14,-28,9,21,77,1
-12,-22,-41,-9,-32,-27,-62,12
8,6,-2,-43,-3,-19,21,6
-14,-31,-11,-3,37,-4,-39,-8
19,33,1,39,-1,19,43,82
0,41,27,4,15,-7,-49,-74
-40,-33,-16,-61,54,-13,-36,-31
25,5,33,-3,-128,-68,2,108
52,21,38,127,127,95,47,17
-3,2,-33,-27,-60,4,5,-21
-26,-8,15,-20,-21,-28,-57,-57
8,-6,-17,-51,-5,-18,4,34
-24,19,-4,-26,-118,-35,-37,-60
18,-6,-11,20,-62,-6,6,-27
-18,-28,18,14,33,21,21,-15
-2,14,35,5,-5,7,18,35
43,11,-21,-9,-1,-11,-12,15
-16,4,-5,-6,-2,-16,-45,-13
0,21,-14,-20,-29,-10,-8,15
-17,-23,39,6,101,28,16,-45
0,-40,-34,-5,-121,-24,-11,31
-1,0,-4,65,127,27,-9,-35
-21,-7,-11,-40,50,-24,-45,-102
13,20,51,6,-128,-47,78,80
12,-15,-21,17,118,35,-1,85
5,-25,-37,-30,5,17,17,-15
30,-1,-33,-77,-70,-68,-21,-18
-9,-10,16,44,-31,15,2,31
2,-14,-4,13,24,27,36,32
-12,35,-1,2,-16,-10,3,-11
21,12,5,-44,34,-56,-119,1
-15,-39,-35,-77,-55,-27,42,-14
17,-1,6,108,127,35,34,64
-14,10,18,61,127,66,-12,-20
4,-13,-23,-24,-35,-18,15,21
-13,10,-12,-17,5,1,-16,8
7,4,16,-45,6,-54,-45,12
-8,-6,-10,28,-94,16,8,-36
3,17,4,32,127,29,4,29
-46,-20,-31,-5,25,1,17,-58
41,-18,-13,-25,39,-2,-2,58
-13,6,78,-9,-102,-5,22,-128
12,24,16,22,-40,23,5,19
-13,9,-15,7,35,2,1,-20
10,1,13,-9,-12,-4,11,46
-19,-22,-31,1,55,33,64,14
8,17,-23,-22,-51,-48,-77,-44
4,-15,-8,-53,-88,-28,19,37
-15,-1,7,126,127,87,34,-7
42,4,-18,-14,10,2,13,-27
6,-23,-40,-27,-4,-3,29,0
2,-6,-9,-22,0,-26,-24,63
-14,22,17,-18,68,15,1,-41
56,-17,-6,22,8,-14,23,80
7,35,13,124,92,82,4,-2
-31,8,-16,-39,56,-23,-30,-20
-1,-12,11,-23,-128,5,39,-10
28,10,-19,-34,-55,-48,-44,42
-7,-12,-15,0,63,27,41,-63
-15,-49,-28,-35,20,-17,-56,3
-11,9,46,1,-68,-4,-2,9
-8,39,-11,-7,-58,-15,2,-57
42,5,-44,-1,104,4,29,80
-31,9,15,-16,-128,-11,35,-12
12,-15,34,47,-96,5,6,-17
-17,-35,-56,-14,-5,9,15,-56
-9,-26,15,-29,28,-31,-68,-39
10,-20,-51,-16,-128,-18,47,42
6,41,13,13,-1,-5,23,-48
9,14,16,7,35,18,7,19
-30,-2,9,-37,71,-15,24,-63
3,-21,-12,35,-88,9,16,111
9,2,-25,-1,-21,-16,-32,-41
7,21,19,-13,20,-14,-35,-21
-49,-31,-36,-62,-128,-53,5,-25
10,16,29,54,0,2,-6,-19
34,1,-25,14,98,23,20,100
-29,-24,-13,-41,2,-14,-16,-19
-13,-13,-28,-23,-38,-37,-82,-65
-57,-29,10,-109,-121,-76,-34,-64
53,27,27,127,127,127,118,48
9,16,-41,27,17,-20,-42,-63
2,-9,44,-17,36,5,-19,25
-24,-20,-31,-91,27,-24,25,-18
2,43,-17,87,-122,10,-37,-27
5,-7,13,-16,-21,-16,-10,-60
-5,-12,-21,-22,-8,-14,-5,12
-4,-27,15,-16,27,2,1,-16
-45,-29,-41,-128,45,-65,-75,-128
34,12,11,127,-128,50,79,127
-9,32,10,39,-1,8,-19,-23
-1,-4,-10,0,35,13,4,-82
-8,-15,-18,-40,-8,-21,-34,-1
-44,-42,-39,-85,-17,-52,-7,26
44,9,44,47,-92,-6,-10,54
-16,2,21,59,127,92,4,-29
0,2,-13,-17,-45,-29,-26,-55
22,-4,-47,-22,-42,-15,-22,9
14,4,16,-23,16,2,-4,55
-7,12,38,-10,-29,-8,26,-37
12,-9,30,49,-16,-13,-55,63
-13,-26,-38,-12,7,-19,-27,-25
-31,-42,-30,-3,77,30,4,-59
33,67,-6,-50,-105,-68,-11,51
-14,-8,-1,15,1,22,26,-11
-26,-56,-28,-20,-84,-22,-40,-55
38,-14,-42,38,12,-8,-20,7
-3,5,2,28,-4,14,14,-24
-9,17,25,-27,35,-18,12,12
-42,-19,-23,-59,-128,-55,-56,9
4,-17,0,-32,-128,-36,21,-21
-2,12,26,126,127,55,38,-25
-1,-20,-31,-13,14,-9,-10,44
-12,-7,-19,-20,19,6,20,-21
-13,16,11,-73,-22,-42,5,39
63,-35,32,115,127,101,78,75
6,-3,-53,-1,31,-2,0,21
-22,24,-1,-17,-5,-15,-45,-20
-27,-15,14,-111,12,-51,-82,-92
38,10,32,80,-128,25,52,68
11,18,22,54,123,41,11,38
-17,4,-6,-15,21,-6,-41,-61
-18,-13,-22,-31,-21,-11,49,1
-21,3,-32,-49,-19,-2,27,-75
6,-10,20,-12,-111,-46,-33,43
16,-10,7,45,14,39,32,-14
-15,-1,-20,6,63,14,-25,-14
-9,21,-18,-19,-12,-3,42,-69
17,4,80,-26,5,-23,-14,82
-9,-11,13,2,-56,-2,-6,-1
-22,1,-8,-6,-52,-11,-17,-67
-18,-9,-16,-20,69,-9,-39,-11
14,-25,-20,-46,-128,-36,52,0
-6,-4,-22,105,100,50,43,-34
0,1,10,16,80,21,35,37
3,-7,-27,-23,7,-13,-46,-8
-18,-13,3,-36,-8,-11,17,-51
-21,-13,-14,-128,31,-88,-75,-25
56,79,36,127,-49,117,92,51
4,-17,26,45,127,31,7,-3
-34,-39,-27,-40,-10,-5,21,-49
-28,20,-17,-15,-4,-41,-83,-60
4,-25,-18,-22,-16,-19,-28,40
16,-1,-36,-27,-11,6,65,79
-2,-6,45,17,-19,-20,-59,-91
9,6,-16,-33,57,14,34,37
32,37,13,-10,-113,-5,16,21
-42,-20,15,60,85,35,24,-71
50,10,15,-28,-37,-41,-50,117
17,23,-11,10,-5,7,3,39
-9,-17,-9,-4,11,0,0,-12
-24,-54,-34,-25,44,-7,-22,-44
-17,5,6,-21,-128,-36,11,40
1,3,14,43,46,28,46,34
21,-3,-8,6,26,-2,2,10
-22,-38,-27,-13,11,-8,-31,-50
-15,27,5,-43,-14,-4,-2,-14
33,-22,-7,17,39,1,37,58
13,35,24,22,-119,0,36,26
5,11,12,54,42,14,18,-61
-15,-32,-24,-20,0,-5,-8,18
-20,5,-41,-89,43,-60,-78,-61
-2,22,18,14,-128,-26,71,4
27,-6,58,73,127,76,33,91
13,-25,-13,3,40,-5,-4,32
-3,21,-7,-18,-26,-9,41,19
-9,-12,-14,-20,-27,-15,-42,8
-5,-2,-13,-7,15,8,-31,-58
11,9,13,-39,62,14,76,-23
-10,-11,-9,16,-128,-23,-14,-63
7,-7,-19,-47,4,-58,-46,63
-37,0,36,53,-33,62,29,32
10,-24,-18,22,23,16,17,-41
-5,-12,2,-17,14,4,2,14
-5,6,-31,-33,-25,-13,-7,-11
7,-38,29,-34,33,-19,-8,-9
-24,-4,10,39,-67,16,-7,-14
7,33,-13,3,22,20,31,-25
-6,-12,1,3,15,-9,-23,-27
7,-1,-13,-11,-7,-8,-7,-32
5,-7,19,-21,-42,-20,-5,37
-5,36,-6,-44,127,12,-26,32
2,40,16,91,-128,7,66,-23
-7,-61,-18,5,36,0,6,2
6,-25,-20,-24,16,-7,-15,33
-9,-3,-17,-26,-31,-10,-16,2
6,23,-4,-68,-128,-64,-19,-14
-27,8,40,45,111,57,-40,-12
22,14,-23,-14,-105,-36,18,34
41,-27,-30,59,5,41,36,83
-6,-11,46,38,118,21,-10,-17
14,5,25,-42,-10,-12,15,11
-22,-3,-18,-40,-117,-43,-46,-35
-12,18,6,-1,-73,6,42,18
26,-4,-31,-23,-32,-10,-5,12
-4,-24,22,17,116,13,-15,-7
6,10,-1,-53,90,-11,-6,-10
6,-23,-33,77,-128,-1,32,16
-25,-15,9,22,89,23,22,-16
-10,-20,-1,-16,4,-6,-7,-35
-18,27,38,-33,4,-26,-49,-10
26,-11,-17,20,49,25,47,62
14,-22,-2,31,100,22,-33,30
-29,5,-33,-4,31,7,-9,-51
7,12,18,-11,-2,-12,-31,8
-19,10,7,-19,42,-11,-5,-7
-15,-37,-47,-30,-115,-25,23,-13
-26,31,27,4,-128,-14,-40,-33
15,20,16,-19,100,-1,-36,-74
6,-20,-24,26,-86,5,33,74
-4,-37,-41,-1,-65,-19,-22,10
3,9,-15,-9,-3,-5,-10,1
-7,7,-25,-29,6,-12,-20,-23
-36,-19,16,-32,-121,-23,43,-46
-18,-18,-34,-40,97,34,-33,23
23,3,8,-74,-128,-96,-62,-3
16,8,12,126,-128,72,41,20
-12,-2,-16,20,56,20,12,-39
1,-8,5,-24,0,-7,13,37
-1,14,-4,-26,-23,-23,-11,14
-29,-11,-14,-27,-23,-9,-21,-72
2,15,-28,-64,88,-2,3,-55
17,-37,5,-77,-128,-100,-19,15
17,13,27,123,119,84,64,86
13,26,5,31,57,-1,-8,41
-26,-12,-47,-33,-15,-12,-25,-43
11,17,24,-15,-12,7,63,29
-7,-32,6,-23,7,-11,21,10
-33,-28,-1,-74,-124,-42,-34,-92
48,41,-27,72,-23,25,28,127
1,2,37,14,46,11,7,29
-18,-14,17,-14,-23,-29,-44,-48
-4,-3,12,-5,-2,5,7,-2
-7,-1,-25,-4,-8,-7,-12,5
-8,-4,-2,-8,-4,-1,0,12
-25,-9,-11,-25,53,11,-2,-57
8,-44,-35,-120,-128,-110,-53,-39
7,27,35,127,127,127,69,30
8,3,-13,60,127,28,-11,-41
-13,-11,7,-25,-1,-12,-16,-18
-5,4,-16,-18,0,-8,-5,26
-8,-3,28,-51,46,-14,24,-21
-6,-10,-47,22,-122,0,3,-58
26,22,19,6,22,-3,-20,-17
-24,-1,2,-96,-78,-53,-67,-98
9,-42,-11,39,17,36,51,49
49,36,17,86,112,73,40,102
-15,-17,-4,5,30,-14,-31,-42
-24,15,-15,-28,-4,3,26,36
-1,-4,-20,-25,-47,-1,19,6
0,2,21,55,127,59,-16,-10
-17,-4,40,-67,-28,-28,-21,-21
12,-24,-13,73,-52,37,43,41
-8,-12,-32,7,44,15,46,-66
25,-6,-14,-8,-5,-6,39,120
-27,-14,5,-20,17,-13,-44,-29
9,10,-15,-22,-55,-15,6,79
-4,-3,-25,39,62,40,47,-19
-36,9,-19,11,30,10,5,-92
15,-7,44,-4,31,10,-2,27
-12,-23,-21,-21,-22,-20,17,-46
0,1,-5,-63,12,-22,-41,-56
19,0,-6,25,-76,11,5,17
0,13,18,31,83,36,43,-26
20,14,-50,-1,-128,-15,31,116
29,11,35,42,127,43,10,41
1,-24,-33,-23,13,-9,-5,32
-15,15,35,-24,42,-8,-6,-29
-4,-22,-25,10,-53,-19,-12,0
-12,-17,-35,-51,-116,-35,-9,-17
6,14,60,86,127,75,35,1
-21,-2,-19,-128,15,-100,-68,-56
7,-14,3,126,-128,54,69,28
8,19,-8,33,65,35,56,37
1,-3,-8,-19,74,10,-6,-5
-33,1,-11,-38,-9,-15,-22,-63
-27,10,-1,-32,-34,-26,-23,27
38,-37,-5,-60,-3,-33,-16,-56
12,16,33,33,-44,15,4,8
-23,-11,-25,5,5,5,22,2
-36,-58,-41,-14,-30,4,38,-57
13,29,16,-2,41,-22,-75,21
8,10,3,-2,-4,-2,-5,2
-15,22,3,1,14,4,21,6
-4,-4,-13,-2,30,7,-1,-3
-1,10,73,-43,-51,-49,-80,-60
-23,18,15,14,23,22,70,47
23,-10,-43,96,-61,-15,-44,9
-1,-15,1,0,59,8,-17,-17
9,34,7,-25,16,-8,4,22
-13,-17,-9,-15,-48,-10,-3,17
-14,-29,-49,-81,6,-23,-27,-33
-68,-37,16,0,-31,-27,-91,-128
2,11,18,82,69,28,24,67
48,27,-48,-30,-79,-48,-73,-2
8,80,127,104,127,79,41,-37
-8,-81,-11,-21,20,-11,-15,22
-8,9,-12,-19,-2,-13,-14,-31
-10,-30,-23,-36,-24,-18,-15,-15
-21,1,-46,-78,113,0,-29,-18
-39,-29,-13,-67,-128,-87,-4,-64
43,68,53,127,127,88,41,30
-9,2,19,10,67,20,6,14
2,-2,-3,-35,-41,-17,-18,-10
11,-15,-20,-40,-40,-4,34,13
-13,-3,-9,-24,-28,-19,-28,-9
-8,-7,-28,-27,-24,-9,-14,-28
-2,9,-10,0,-81,-14,3,6
-25,-21,1,10,-44,13,-8,-75
-56,-5,23,-1,-12,-17,-39,-96
68,7,-28,-9,-40,-16,19,123
32,-28,-1,-21,-5,4,18,49
16,-4,-22,2,-51,-18,-6,50
-13,33,33,6,18,-3,-10,-40
-32,-22,-5,-76,107,-34,-66,-63
-33,-27,-54,-7,-128,-7,38,-20
7,11,26,127,127,127,32,-93
10,-30,-16,-19,-22,-33,-49,12
5,-2,-30,-20,-13,-9,0,1
-9,18,-10,-30,-20,-21,-25,-35
-18,-24,-48,-120,-26,-64,-58,-2
16,27,32,94,-69,47,46,-28
1,-12,11,24,55,19,16,8
-18,-17,-6,-7,7,-12,-35,-1
6,19,-19,-31,-13,-16,37,11
32,11,83,58,57,32,29,39
-11,-19,-10,-23,-13,-7,-18,-20
18,5,-7,32,37,11,9,24
-11,1,-26,-64,50,-9,-10,0
-2,-6,10,49,-56,24,8,-13
-21,7,-5,42,111,2,-16,-36
-24,19,5,-22,-128,-4,43,-68
54,-23,12,4,23,6,2,127
-21,13,-34,-23,-4,4,9,-62
12,1,-6,-16,0,-4,-46,-79
-9,-5,-1,-17,-16,-22,-30,35
3,-13,-10,-7,-32,-1,19,31
-11,24,-31,8,13,19,-7,-2
9,61,116,-20,-52,-5,-9,-52
-4,-22,45,11,7,7,25,-70
10,-42,-49,-1,11,0,-2,40
4,-4,-3,5,-19,-7,-15,-3
-8,11,9,-8,34,14,-6,-31
-18,-4,-54,19,-46,-13,-3,-48
3,-20,-23,52,127,66,36,36
-22,-13,-8,5,-30,-22,-27,-42
24,13,120,-36,48,-10,7,54
-13,-10,18,6,-128,-6,7,-27
-19,-17,-21,9,21,-12,24,-41
-1,27,35,30,-26,1,33,19
20,-14,-12,-1,-9,-8,-12,76
-1,0,-42,-15,27,9,-4,-6
-27,-12,12,-21,-39,-35,-24,-41
-12,-30,-8,-49,-128,-19,24,13
-4,-11,-18,57,19,10,-6,38
12,18,-12,-4,22,1,28,-17
1,42,22,-7,4,-13,3,12
-10,-61,-4,-51,-38,-29,12,55
19,23,-43,14,-40,4,3,41
-8,-21,10,14,28,15,-37,-51
-13,11,38,-2,-26,-14,-19,5
-7,1,21,4,-30,5,62,37
13,-13,-22,-14,25,-10,-25,1
-10,34,7,-6,37,-4,1,7
44,-11,-4,28,-100,15,42,84
-4,-11,-4,7,11,14,13,-17
-6,-6,-13,2,17,2,-1,1
-14,-11,39,2,-2,0,-5,-33
4,28,-10,-21,-53,-22,-15,6
14,6,3,14,34,1,-38,-2
18,1,-14,-17,64,-17,-15,11
0,-15,-46,-2,-128,-25,18,2
6,4,74,55,127,46,21,7
-1,13,-16,-9,-8,-3,13,-10
-8,-16,23,-17,61,-5,-8,-11
-24,-11,-9,-70,-22,-41,-43,-87
9,15,-10,66,31,23,15,35
-16,9,-8,-31,67,-8,-52,-20
-33,6,5,-26,-60,-28,7,-9
58,19,3,92,-6,63,68,-13
34,24,3,-4,44,2,7,3
-28,-16,-6,-44,1,-16,-28,-16
-13,10,-13,-73,-80,-30,-21,65
-27,-39,-16,12,-128,-32,-14,-128
48,20,14,54,95,0,8,127
-10,0,16,-38,-4,-29,-42,14
-56,-4,-19,-83,-58,-22,26,-128
70,-15,14,73,-128,-27,-39,110
-23,-5,-33,11,84,12,-12,-31
22,0,8,-11,50,2,3,20
-8,6,-18,-6,16,-2,-8,-23
-4,27,8,14,17,29,54,0
1,-29,-7,-14,7,-30,-66,-16
8,7,38,-6,-30,3,18,26
-22,17,11,0,1,-8,-16,-29
-14,-9,2,-4,-59,-19,0,-13
-18,9,-16,16,36,25,12,-52
-5,2,5,-3,-1,-4,-13,18
42,3,-17,-13,-41,-5,-34,70
-33,-30,-7,2,52,5,-15,-35
-13,-4,-11,-33,17,-1,9,2
23,3,-15,-32,-57,-37,-1,-31
-11,6,6,30,95,46,46,73
-37,-3,6,-21,2,7,-18,-72
36,-4,-4,43,-128,-25,25,24
6,0,10,41,105,8,4,36
-3,-2,27,-27,-1,-23,-24,-14
-38,-7,-36,-10,20,-1,3,-29
-1,-7,4,-2,-1,-13,-6,-29
-12,-25,9,-78,-68,-51,-57,37
12,-7,-4,41,56,29,12,-11
14,17,9,-15,-42,-16,-9,3
0,28,39,60,127,43,-5,56
-17,-21,-23,22,96,38,54,-60
1,-24,-46,-13,6,-21,-68,-70
4,2,-5,-28,1,-17,2,53
-11,13,6,-11,-76,-10,12,-9
0,-13,-29,20,-91,-21,20,4
28,8,9,2,10,12,20,118
-37,-21,-25,-23,25,15,15,-41
0,18,37,0,17,-13,4,-34
5,18,1,16,-16,25,43,56
40,-5,-10,-25,19,-27,-37,69
-5,-12,-12,0,-99,-12,-14,-9
-34,16,-11,-18,69,-6,-49,-93
-2,-12,-24,-1,-80,-6,47,64
-6,4,-33,-84,29,-19,-14,-39
-3,-4,36,69,-104,9,15,-2
-2,-4,17,70,127,87,20,-33
1,26,40,-17,-7,-24,-15,26
-3,-29,-24,-22,-93,-18,17,17
-8,-2,-2,-11,33,-4,-1,-6
-8,-7,-25,16,-64,15,48,3
-26,-21,20,7,91,2,-34,-41
17,17,7,-60,-76,-29,-27,-7
-19,-11,-5,0,-67,12,14,-8
13,9,-12,1,-116,-53,-54,41
-6,-23,-15,32,118,25,-2,-16
32,54,14,-2,14,-6,17,-13
-3,5,5,-26,13,-4,55,53
-11,-9,-10,10,-55,12,-3,-37
23,-1,-7,-18,17,-26,-9,49
-4,-9,30,-48,-1,8,-6,-58
-42,-29,-33,42,-128,-26,-4,-57
40,19,0,9,22,20,-1,-12
30,32,-31,-15,20,8,50,63
-6,7,38,12,-46,8,-21,-7
15,22,8,16,23,-13,-14,19
-26,-26,-7,-25,-13,-4,7,-48
-9,-14,-22,-27,-1,-26,-30,33
13,2,24,-13,-3,-8,-10,8
-13,-24,-20,-68,-121,-49,-23,20
-16,-14,-23,111,96,56,-2,-29
-2,4,15,9,7,-5,-24,-14
-8,25,-6,-16,-4,-14,16,103
-26,-44,-46,-31,-21,-17,14,-36
21,13,44,-63,-4,4,19,38
18,22,-4,69,-64,0,13,26
8,20,30,20,119,35,30,10
-11,-33,2,32,98,10,9,36
-6,30,-45,-13,-96,-19,-13,-20
-30,0,23,-1,56,-23,-23,-15
1,-13,-43,28,116,63,103,28
17,26,62,-3,8,6,-31,26
-1,-9,31,-8,-9,-22,-40,-64
9,20,5,-11,-128,-36,22,35
10,20,-35,-4,84,0,-4,9
3,-8,-12,-20,-128,-28,-33,-22
7,8,-3,34,112,41,27,58
-27,-20,-18,-12,-13,-6,-21,-8
17,-3,-15,-4,-4,-24,-37,-3
-7,1,8,-23,11,-12,-13,4
3,-23,-20,-19,-23,-13,3,23
-8,-5,49,11,-46,0,-46,-78
-5,25,-28,-26,-112,-19,15,24
74,43,54,42,114,9,40,112
11,-25,-44,-3,-12,8,19,6
-35,-14,37,30,15,12,31,22
6,-1,9,-3,8,-2,-24,-21
1,15,-11,-27,-8,-6,-10,-19
5,21,2,-20,-73,-48,-73,-41
-6,-3,-2,-15,89,17,3,8
-27,-4,-7,-53,-32,-11,14,-17
-33,-76,-19,58,70,33,13,-128
30,-18,-16,-16,-84,-28,1,47
50,19,37,21,88,34,38,127
-14,17,15,1,-51,-9,-11,27
-1,15,58,27,66,-1,-14,-13
-10,-5,-9,29,-5,32,43,5
-4,4,-9,-21,30,0,-28,-33
-10,-12,-29,-60,-27,-23,-14,-17
-10,21,-12,12,-128,-16,2,-11
-24,-34,25,13,-8,7,6,-73
13,59,-39,12,43,-21,-41,34
-10,-31,54,-5,-2,4,17,-26
10,3,-17,-12,0,8,46,4
-3,-14,-32,-16,-1,-14,-12,27
-5,2,-1,-4,9,-11,-15,12
-18,24,32,9,54,31,21,-24
11,-41,-3,-3,-103,-61,-72,-3
36,38,5,31,78,47,71,80
1,-2,-71,-16,-13,-22,-72,33
-34,-28,33,-20,-8,-10,-7,-106
15,-1,20,1,-70,-26,-23,37
7,39,-43,7,103,41,9,-4
-15,-19,18,-53,-57,-36,6,-32
7,3,6,114,-22,64,44,67
-29,-21,-10,21,56,-4,-43,-71
-25,-4,-36,-27,5,-10,-13,-69
21,2,27,-15,12,-17,-6,73
6,7,20,-17,-59,-18,-15,10
3,46,-4,11,50,0,-5,-13
0,-41,-47,-20,27,2,-3,24
-17,-11,-10,-65,-42,-33,-6,-28
-22,5,4,-91,-128,-77,23,-9
34,62,51,127,123,92,54,78
-3,-47,26,52,127,35,-15,-19
-7,-18,-59,-33,2,-7,-12,-49
28,10,59,-16,-20,-13,20,83
-19,-9,-19,-63,-10,-18,-16,-17
-17,-5,-23,-74,-64,-63,-43,-27
52,10,-6,87,-23,43,63,37
21,55,8,69,88,12,-16,39
-23,-11,24,-6,0,-9,-14,12
-2,-11,26,-21,-16,-15,1,-32
-16,-33,-40,-22,-10,-7,-13,-73
17,52,11,-11,-2,8,40,69
4,-13,10,-5,-26,-23,-31,-13
-20,-49,-21,-34,2,-25,-33,-59
-19,39,-51,22,23,67,46,33
34,17,50,8,-128,-43,-5,71
2,-30,-9,33,124,27,-13,-3
21,5,-47,-7,17,2,-6,-5
-17,-18,-17,-20,9,-12,-10,-10
-3,-1,9,-72,-23,-38,-39,14
3,-5,-9,-3,-128,-29,36,12
9,20,22,76,127,39,-26,-2
-2,-7,-17,24,98,28,17,-22
-33,-31,-4,-15,-24,-12,-42,-24
-17,6,9,17,37,33,50,53
64,27,1,-17,31,-15,3,54
31,-17,-37,-20,-10,-26,-53,40
-3,13,-2,-1,-23,-4,6,13
-29,-1,-1,-20,-9,-18,-41,-81
-56,-13,-2,-128,75,-39,-90,-31
19,3,-52,34,-128,-98,97,14
66,0,37,121,127,99,3,43
-8,21,35,-19,-36,-12,-29,15
-24,-2,-3,-34,-56,-20,-32,-59
-8,-11,9,-31,-29,-17,-23,-10
-15,-6,-26,-33,-69,-35,-35,-6
-6,1,10,8,29,9,5,-6
6,0,1,7,-21,-6,-6,8
-30,-5,-38,8,-17,9,45,-61
15,33,48,6,-5,4,-3,85
37,-9,14,4,6,4,39,36
-12,-62,-58,-19,-17,-9,0,-49
-8,-15,-23,-8,-5,-10,-8,-12
-29,14,-8,-38,100,7,-8,-52
11,0,-29,-115,-128,-95,-7,6
24,17,40,127,127,127,126,43
5,-15,36,-5,47,-15,-19,-15
-14,-4,-11,-5,125,23,-17,4
-3,5,48,-23,2,-12,-2,-17
-12,-2,-34,-20,-20,-19,-64,-73
-3,5,-12,-16,-12,-1,4,-8
-10,-18,-14,-29,-46,-10,14,-10
-13,16,-41,-52,10,-22,-41,-17
-3,4,39,-128,-128,-108,-39,-12
-1,-19,-32,127,-128,58,62,-10
2,-8,31,37,59,19,5,10
-30,-18,-2,-30,-45,-7,-17,-68
18,24,-3,-24,-42,-24,-40,2
-12,-56,-26,-31,-43,-9,3,4
-2,12,-18,-21,10,-19,-45,13
-27,-3,-33,-79,0,-31,-27,-104
23,-6,-10,76,-128,6,99,127
-5,2,32,70,127,52,40,30
-24,-23,-25,-8,36,2,3,-12
39,18,12,-12,-5,-37,-94,-38
-32,4,-15,-50,-10,-14,-13,-76
8,-22,-7,-44,-118,-65,-53,3
1,-23,-18,51,57,32,19,26
-12,70,70,4,-43,-21,-15,4
-28,-24,27,15,-111,-15,-14,-72
20,38,-14,11,-8,-13,-35,-8
11,-22,-40,-11,5,10,20,0
-4,2,8,-6,2,-2,5,17
-14,-27,-34,-12,-8,-2,0,-24
-24,-17,-13,-102,77,-41,-29,1
-3,3,-1,47,-128,-13,0,-5
-22,-26,-11,61,127,68,122,19
35,65,23,-15,-22,-46,-48,38
-12,-18,-8,-9,25,1,-32,-44
33,-5,-4,-18,-60,-19,-4,8
3,2,23,2,55,11,8,14
-8,18,-9,11,-33,-1,5,-11
-42,-32,-22,-66,0,-12,39,-69
-8,-24,-23,-38,-128,-70,6,-3
39,27,5,127,127,127,39,27
4,33,45,20,49,17,13,50
-12,-14,-7,-15,-20,-9,-13,27
-10,-1,13,-42,-31,-15,9,7
13,28,-22,-38,-36,-23,-18,3
-9,-25,5,58,33,14,-4,-15
-9,-3,1,-18,-8,-10,-7,-40
-38,-26,-43,-42,-26,-9,-12,-41
10,-20,16,16,-5,12,10,56
18,-35,21,0,-2,6,13,55
-16,-26,-26,3,42,10,-7,-52
-2,33,-11,-13,-85,-15,5,1
27,34,14,-9,-48,-14,-27,-3
-57,-30,-9,-75,107,-5,14,-128
20,3,-7,41,-128,2,48,125
2,-19,21,25,106,12,-5,37
-9,-16,-7,-11,-123,-12,-27,40
-19,13,-19,29,99,21,17,-69
35,31,20,1,59,-11,-31,55
-23,-45,-9,20,25,23,49,4
-21,-12,-40,-42,-81,-15,26,-46
21,13,39,0,-23,-7,5,95
0,18,41,-10,-2,5,-7,2
9,-14,-26,19,-124,-16,-14,-13
-15,-20,-11,-6,-39,-23,-25,-19
-14,-1,17,12,-40,-6,-4,-8
-7,32,-11,-19,127,22,35,26
15,-36,-56,-40,-118,-24,-3,23
52,36,28,56,65,23,23,127
-15,27,77,43,-1,2,2,-44
-24,-22,3,-10,19,28,28,-114
32,10,-23,-45,-56,-37,-46,57
22,-16,-33,-2,-14,-10,-15,49
-37,-17,-47,-29,14,-14,-24,-42
-41,-9,73,-30,-72,-29,22,-89
1,-11,4,47,127,55,36,77
43,29,12,-16,-102,0,47,46
-6,-7,-20,85,127,68,31,10
12,9,-16,-17,1,-10,-18,25
-28,-1,-21,-11,5,11,22,-25
-16,-5,-1,-30,-35,-16,4,10
-6,4,20,-22,-68,-44,-22,-11
5,-24,-27,-28,71,15,-10,-3
17,25,1,-18,-20,-30,-23,27
-32,-37,-28,55,31,42,64,-35
26,4,15,21,63,16,8,30
-9,-6,-2,-11,-16,-15,-55,-89
5,-9,35,-4,2,-10,-10,20
-1,-18,-27,-31,13,-7,-33,4
-18,26,-33,-14,-38,-8,-19,-128
10,-13,-4,-61,-128,-45,14,72
35,42,25,127,127,115,31,68
-5,-23,-31,-25,-75,-7,-3,-24
-11,-25,-5,40,103,21,13,38
-11,-2,-35,-26,-35,-22,-23,-23
-18,-2,1,-14,8,-6,-17,-91
20,-5,-48,-12,51,8,12,80
-23,-24,21,-59,17,-19,-40,-57
9,25,-6,32,-7,-20,-46,121
17,5,27,70,-28,41,51,-34
32,23,21,13,76,21,31,30
-20,-18,-24,-22,-8,-28,-44,-2
-7,11,-13,-19,-7,-13,-9,-30
-56,-65,-29,-74,-57,-37,-54,-55
22,45,10,6,-128,-4,1,38
6,-9,-38,10,81,14,26,46
-22,18,34,25,-11,12,-27,-77
14,-20,-43,-31,55,-6,7,63
-12,-4,40,0,-128,-4,-11,-100
21,-14,43,32,43,36,106,84
17,19,18,-80,-81,-43,-47,16
-11,3,-19,65,66,24,-16,-33
-24,-6,-14,-22,91,-10,-48,-68
-29,-30,-17,-15,-128,-27,23,15
32,25,5,27,92,22,-6,6
8,-1,-11,-15,8,-6,-2,-1
18,-4,17,-9,-7,6,21,4
-12,3,-9,-10,-15,-1,-3,-9
-6,12,15,-23,-20,-12,14,45
3,-11,-28,-10,10,-1,3,19
-17,4,-33,-6,64,12,-7,-47
-14,-2,109,43,-48,28,24,-7
-7,-7,-6,-16,-23,-48,-93,-77
4,13,-4,24,-18,-8,-19,47
27,32,-2,-1,10,8,26,0
-23,-14,-31,-38,8,-14,-46,-71
3,-55,-23,-52,38,-33,-26,73
-8,29,-11,42,-128,-13,55,-29
34,15,21,55,123,54,72,30
3,36,67,-15,6,-4,3,20
-11,-29,-1,-42,-4,-25,-22,-18
-21,-7,-1,24,112,9,-20,-72
9,15,-16,16,-128,-20,11,45
-2,7,18,7,69,7,-9,-7
-12,-30,-41,-45,-15,-20,-22,-5
-26,-3,-11,11,-18,12,2,-13
22,13,28,-26,4,1,0,-9
5,-1,10,21,16,-10,-10,-16
-20,-14,-31,-7,-12,-13,11,2
2,22,32,26,51,34,35,18
-33,-28,1,-39,-33,-2,14,-70
17,4,-4,40,-4,-9,5,79
6,-23,-29,-63,-12,-39,-40,4
11,7,23,111,40,56,25,1
-2,31,9,-9,55,1,-21,10
-21,-5,-19,-55,-40,-40,-19,-58
24,-5,-21,8,-93,17,2,39
-46,-8,-9,-6,93,10,-35,-82
19,-26,45,-10,-106,-39,5,74
26,17,21,36,69,25,30,45
16,8,-42,-15,8,-1,16,-16
-10,34,74,-13,13,-8,-7,4
-12,8,-16,-26,-108,-42,-41,-62
1,-1,6,3,23,10,36,3
-7,1,5,6,-11,8,-13,10
-10,-11,-10,-5,48,-10,-32,-39
-3,-15,-40,-35,50,-10,-16,-1
14,10,40,50,-68,-3,-4,-37
-20,63,-17,1,-69,-1,7,-25
41,-23,88,67,127,46,37,70
-1,-5,-34,-50,-9,-15,-11,-12
2,-5,-31,-34,-11,-33,-55,10
1,17,12,30,-65,5,-5,8
-4,-8,-18,1,10,0,-5,-10
-4,7,2,1,52,9,19,22
-6,10,-7,-1,-16,0,6,-4
-14,-21,-64,-20,-27,-10,-30,-13
-55,-34,3,-27,-64,-6,9,-128
56,23,48,25,22,14,69,127
20,1,-5,5,21,2,-18,-13
-9,4,-5,-4,9,8,10,-3
-4,6,-6,-34,-10,-14,-20,-24
-11,-16,12,28,85,16,-6,-11
-1,30,21,36,31,21,-26,-11
11,-41,-52,-59,71,-23,0,-23
-24,-18,-12,49,-87,57,87,21
0,10,11,7,11,6,4,18
39,-17,28,-4,-12,-21,-42,93
-10,17,-5,-11,-16,-6,-5,-17
-7,22,-32,-28,16,-11,-19,-7
18,12,44,-18,37,-3,-21,10
-33,-72,-79,-38,-39,2,85,-7
13,-6,25,80,22,24,7,3
0,-4,18,4,48,-3,-23,-7
-13,-3,-35,-25,-2,-15,-40,-20
-10,7,4,-8,8,3,9,0
10,2,21,-15,18,6,36,36
11,-12,-14,24,61,31,-11,3
-6,-34,-10,-19,-34,-19,-22,-11
2,-5,-35,-29,55,5,4,4
-17,40,32,21,-112,-15,-16,-75
3,-6,-7,33,87,15,8,80
-7,2,57,0,-15,4,5,-14
-9,-29,-9,-15,-16,0,5,-18
-26,5,8,-11,-11,-15,-40,-120
3,-22,-25,-79,124,6,23,4
22,27,-16,22,-128,-63,8,-43
18,8,4,51,97,29,43,85
10,0,-7,3,107,9,-24,2
-6,-10,-9,-15,24,-7,-13,-25
-25,-11,-4,-68,-14,-25,-24,-51
-8,-13,50,47,-8,21,48,-10
4,8,16,38,39,12,-7,-6
-39,21,-23,-8,-17,-12,0,-43
21,-2,-10,-89,104,-6,-21,5
16,-45,-30,-23,-128,-69,28,14
2,-29,13,127,127,56,-10,12
14,57,5,-13,-18,-6,-20,-37
-16,-11,-5,-25,-17,-9,-1,2
-17,20,-3,-20,-7,6,7,80
2,-12,-7,-24,-41,-44,-82,-22
-8,-6,-5,-28,-83,-19,-4,-36
16,35,45,27,62,15,-21,30
1,-39,-50,-6,-4,-1,-5,-33
-13,7,40,7,-14,0,-4,-31
-10,-17,-23,-20,-33,-16,18,24
-1,-14,-14,-5,-58,-9,9,18
-18,-15,-13,9,29,-4,9,-72
31,18,0,15,-28,4,43,115
7,27,34,-6,-39,-5,-24,-16
13,10,-28,-31,-58,-3,27,34
-13,-6,11,22,127,11,-10,-8
-16,-44,-41,-17,-128,-37,4,12
-24,4,-15,12,127,24,-25,-41
-6,-4,-31,-54,-83,-32,-3,-17
52,2,49,5,0,3,36,12
-7,-28,-38,48,-128,-13,-25,21
-6,15,19,-1,63,10,5,-26
-1,-10,-23,-24,-6,-4,-6,17
-1,-9,-14,-44,-20,-21,-36,-43
-21,-29,-44,-48,-52,-21,-25,-55
-18,-3,23,0,-96,-12,54,-39
20,37,25,54,113,40,-35,-10
-12,16,-29,-37,-50,-67,-82,-37
28,-16,30,27,34,6,-2,79
2,-15,-8,-14,52,7,-5,19
-14,-7,-8,-19,-39,-17,-2,-40
7,13,-15,23,68,16,-3,27
-15,-10,-31,-30,-32,-8,8,30
-16,-13,3,27,-128,-13,1,-18
18,-7,15,2,-20,-1,7,-23
22,19,6,6,63,2,27,71
6,8,8,-3,69,5,-19,3
20,15,11,-46,42,-2,-4,15
-3,5,32,51,-7,12,64,40
-12,-16,-40,4,-10,24,17,13
-23,-19,55,-13,56,8,68,7
10,-1,-28,-11,-108,-39,-55,33
3,21,63,16,-11,6,-13,-10
-7,-4,-36,-17,-70,-1,8,-61
7,-6,2,-16,-5,-18,-10,11
-4,-19,0,-18,10,-6,34,68
-6,-13,1,-10,55,2,-8,-21
14,28,-10,67,59,35,21,28
-7,-26,-5,8,-90,-2,10,5
-7,0,-21,0,38,18,23,-6
4,-1,-12,-48,31,-20,-40,-2
2,9,35,-26,-128,-49,-20,22
-22,-19,-27,48,127,59,-2,-54
-10,-32,-63,-10,3,-19,34,54
14,15,114,22,-25,23,57,65
22,26,-16,11,58,8,-28,44
-6,-1,-33,-68,1,-30,-42,-32
-22,10,60,-2,-128,-27,22,-19
5,-8,-40,37,116,35,35,-5
0,-31,-33,-43,49,-9,-36,-41
13,11,-33,-16,-73,-28,-25,65
-20,22,19,10,-98,-3,-1,14
-28,-35,5,9,19,11,-6,-84
6,5,-3,6,60,8,-29,35
-6,17,3,-25,-92,-43,-36,-33
35,28,8,-3,26,31,72,72
9,-12,-29,21,61,11,6,13
1,6,-23,17,2,9,51,56
11,-1,40,-3,-2,-17,-62,24
-48,-18,-11,-26,-19,-29,-46,-95
6,-6,-20,-37,-44,-9,-55,-5
2,-6,15,14,-117,-16,-9,1
3,-11,-5,23,74,16,-11,14
-12,9,-31,-24,50,4,0,-13
0,22,-6,-28,-70,-26,-32,8
10,-11,35,30,-13,7,32,20
-8,3,25,20,6,15,2,-18
-15,0,-27,-8,53,2,-2,32
-6,3,-13,-41,-101,-43,-36,-45
-5,4,-28,-84,-7,-24,24,-3
38,12,23,111,25,87,12,-4
2,-8,-17,39,77,10,10,41
-4,-5,14,-14,20,-7,-21,-8
-12,-8,12,-28,2,-12,-44,-47
-18,-12,-77,-22,-27,-24,-33,-28
5,-5,100,23,-5,-10,15,58
-7,5,9,3,32,5,-12,-15
-2,3,-5,-70,34,-9,-5,-29
5,9,-5,26,-128,-38,11,46
21,11,2,15,35,23,28,-31
0,-14,-54,-22,1,-14,26,52
2,7,61,41,127,88,32,11
-31,-47,-44,-36,-77,-28,-18,-49
7,9,31,36,17,23,39,-20
5,-29,-16,16,-18,-22,-30,-36
-15,10,-8,-27,37,-8,-10,28
-5,3,-17,-4,-7,19,29,-37
1,17,9,-6,-125,-21,-15,43
-32,-17,-18,-1,-3,8,7,-58
22,3,0,-14,-1,-9,15,33
8,3,-19,-33,15,-25,-27,30
-19,5,43,-61,-60,-21,6,32
8,-22,22,99,-6,58,69,42
20,12,-28,63,127,31,-6,12
-20,-26,2,-28,-23,-12,-17,-87
-14,14,4,-17,-10,-12,-4,-28
-22,6,-43,-62,6,-17,14,-54
-9,1,11,-12,-128,-26,-15,-42
-5,28,5,30,-4,10,30,32
14,-15,12,-8,-38,-15,-67,20
-1,-58,-52,-8,25,-1,13,-35
4,-10,-26,8,-11,-4,-4,44
-13,37,19,-6,2,-6,2,-14
-6,-6,-12,-41,21,-9,-1,30
-15,-10,9,13,-56,-2,-25,-75
25,2,-27,0,-29,-31,-3,37
-21,-19,27,-19,75,4,-42,-54
-4,0,-17,17,-128,-2,67,49
16,16,-9,12,50,-4,-29,-12
1,7,18,-2,-26,5,7,2
-19,-39,-34,-73,-42,-48,-4,-14
-23,-29,-14,-17,-14,39,31,-13
10,5,46,95,-42,9,-48,22
-9,6,10,-4,52,0,-6,-63
-15,6,-26,-30,-76,-17,-21,-97
-31,-11,35,-13,-18,-9,3,10
16,17,-2,-3,-28,-7,-54,-56
24,25,20,7,50,0,9,67
-20,-15,-2,-13,-28,-14,-25,-36
-4,-32,-44,-30,80,12,18,0
22,1,12,14,-71,5,28,58
-19,-8,-33,-9,-2,-2,63,50
9,21,44,81,47,41,10,5
3,-8,-13,-1,31,-17,-29,33
-22,4,-8,-15,33,4,-15,-35
5,-6,-13,-46,-22,-36,-37,-41
5,-3,3,-60,11,-5,11,16
9,16,22,127,124,125,81,36
5,2,-8,12,44,3,-41,-20
-17,-31,-38,-29,-34,-34,-23,26
-7,8,-16,-33,-12,1,-19,-44
28,14,8,-40,-37,-46,-28,45
0,0,28,53,46,31,38,22
0,-12,-3,-3,13,-5,6,15
-3,26,-6,-13,4,-5,-7,-2
-26,-16,-27,-4,32,27,95,-6
-12,-23,-35,-30,-25,-23,-38,8
17,-22,-36,18,0,-2,8,87
22,13,43,18,67,31,27,27
-42,2,-3,-59,65,-30,-92,-127
5,-29,-35,-41,-128,-63,32,47
24,-4,27,102,127,67,56,59
-18,-33,-60,20,89,8,-48,-42
4,20,41,-11,-13,-11,-15,-9
-25,-6,-5,-44,-1,-2,10,-57
-31,-7,-12,-25,63,3,27,-56
22,52,1,25,-128,-46,-50,31
28,-41,-28,15,26,8,19,84
1,-4,-16,-34,-14,-14,2,-15
-10,-13,14,-9,-10,6,0,16
-35,12,26,-55,-50,-62,-53,-80
26,27,42,88,127,123,83,63
7,48,-18,17,36,20,4,-27
-24,-59,-35,-27,-13,-18,-28,-9
-12,-8,-45,-15,-13,-3,3,-12
3,-13,55,-21,-7,-25,-1,-8
-6,3,1,-32,-128,-26,-28,-9
21,30,15,49,27,25,2,-15
-28,-18,-5,4,62,18,55,-36
22,9,66,21,-115,-28,-11,57
7,-4,-47,-10,42,8,7,-36
-12,-4,20,1,-66,-14,3,41
-11,17,-7,-38,42,-1,-59,-27
-11,-24,-39,-64,-89,-72,-23,3
24,24,18,127,127,113,44,29
22,-7,-6,11,43,-7,-8,-2
-37,-18,-14,-16,31,-14,-41,-94
14,24,19,-17,-15,-18,37,46
5,-10,-19,-35,-71,12,43,33
1,2,14,78,127,50,57,-5
5,-1,-21,-26,-29,-36,-73,-23
-28,-9,27,2,-39,8,22,-38
-3,-4,-1,-13,-24,-22,-7,16
-1,-9,-7,-27,-47,-12,-17,34
-14,-12,-11,-25,6,-20,-23,-21
-26,13,-11,2,-111,0,12,-45
18,30,7,16,-35,0,-2,-41
-3,8,10,-2,-33,-13,34,70
-6,-35,-1,-9,-1,5,-15,14
-9,-15,-28,-37,-14,-25,-24,-53
-13,-34,-39,23,41,30,-7,-25
-11,3,-25,-10,-37,-7,12,-33
-5,3,27,13,74,6,-4,-7
1,26,-10,22,-7,0,0,-2
6,7,58,-13,60,4,-13,-23
8,-20,-16,6,-10,4,5,11
-11,-14,-36,-6,19,-2,29,-1
0,2,10,20,4,12,-23,-11
-5,-12,-52,-25,101,10,10,28
5,-6,20,-32,-90,-9,26,32
-1,4,-30,-32,-10,-65,-75,-22
14,30,21,127,127,119,27,9
-12,-22,35,-1,40,9,10,-39
0,0,-15,-10,-4,-12,-31,-90
17,12,35,-46,30,-1,52,68
5,-22,-71,2,-117,-22,-15,32
-6,38,54,14,1,2,-12,-122
8,11,-21,-15,15,7,29,81
-17,-47,-10,-35,0,-14,-4,-33
-11,-10,10,3,-49,-12,-9,-24
12,39,-24,2,50,22,10,20
-25,-39,2,5,12,0,9,-11
1,-5,-2,-1,12,-15,-43,46
2,-3,-5,-6,7,-6,-23,-26
5,35,7,-30,-27,-4,-1,-2
-19,-19,-2,-6,-33,-13,22,-11
3,-13,-7,-24,-95,-38,-47,-4
-10,-4,-12,34,45,7,4,-10
2,4,5,32,115,51,35,19
-9,-5,-23,-25,36,-7,32,-31
49,28,88,34,-79,-5,17,100
8,28,5,-2,24,8,13,-3
-25,-52,6,-2,41,11,35,10
-22,-11,-56,-127,-60,-56,-28,-9
7,28,12,78,-72,73,63,-27
7,-5,6,33,79,16,-22,51
-17,-38,-45,-36,-22,-20,-11,-34
-3,5,-14,5,-30,1,4,-69
-28,22,0,4,41,34,29,27
25,2,4,-15,-11,-27,-39,49
32,8,6,1,-59,-3,-3,9
-6,7,-22,-75,5,-43,-47,-12
-22,-10,10,1,-128,-23,-38,-88
6,-18,0,35,16,17,26,99
-17,23,1,4,10,22,35,-28
23,-40,-20,3,73,-19,-44,46
-17,-9,-38,-59,-128,-56,-32,-49
5,13,4,88,127,88,19,-42
-21,-1,67,2,-48,-6,12,-62
-19,-25,9,-25,-15,-9,-16,-1
-24,-37,-21,-79,-33,-40,-42,-52
-2,15,10,75,21,42,5,1
21,40,-17,-8,-50,-8,50,53
8,-42,-8,62,28,37,44,-7
15,6,46,-23,-13,-15,-13,5
-13,2,-17,-25,-10,-14,-14,3
-3,46,9,-14,0,-13,-34,-28
-6,-56,-45,-50,23,-3,57,-11
-1,42,41,23,-99,-17,-56,47
4,-64,-15,30,52,10,-13,10
-16,-7,4,0,46,6,4,-30
-10,1,-31,-21,-77,-17,-8,-23
-23,79,10,-10,-58,-16,-14,19
42,9,26,46,127,43,17,-10
-8,42,20,-18,24,-18,-26,-59
1,-127,-22,-34,-85,3,20,67
8,-4,-36,15,28,6,31,17
-9,16,-18,-5,1,7,-2,-33
-33,-21,0,-4,-8,-13,-33,-26
-1,15,18,-8,52,-2,-8,-36
7,38,15,-24,-93,-8,32,20
24,44,53,41,-24,10,5,-3
8,-4,-46,-1,18,9,1,46
-13,0,-17,-33,42,-14,-51,-6
5,5,34,26,24,29,24,0
-5,-14,4,0,-32,-25,-33,-7
-19,11,-6,-1,39,9,24,-60
27,25,-6,5,14,-5,42,31
14,-39,-4,-20,74,22,-11,27
-5,-10,17,38,-128,-2,-1,-21
-8,19,26,74,127,61,1,-17
-9,9,9,-25,-14,-24,-41,-4
-6,22,-23,-34,11,-10,7,-55
7,-17,-12,-39,-128,-47,5,16
-13,-56,2,15,91,0,-5,-12
-1,-7,-27,-1,-9,7,-5,-44
-3,-10,-21,-33,-4,-21,-9,27
0,-15,-5,1,54,6,13,-11
19,31,37,62,-110,21,4,61
-1,91,11,8,77,13,-5,-5
-19,-68,-37,-74,-32,-23,3,5
7,-4,-2,81,56,30,4,23
11,62,-3,-23,3,-18,-30,-107
13,-6,40,14,35,18,58,107
-3,-40,-18,-15,-15,-15,-34,2
12,-5,-19,-42,11,-6,4,-36
-7,-19,-8,31,-20,-6,-24,4
1,40,28,19,-1,20,43,22
-10,-66,-32,-42,107,-14,-29,-4
-10,17,11,-29,-128,-40,4,3
20,2,17,127,127,87,58,-44
4,32,15,-8,32,-3,-4,38
-7,-11,-10,-20,-5,-19,-18,-3
-6,-22,-6,-18,-2,-1,9,20
-8,-6,0,-20,-20,-14,-12,-16
-7,17,18,-20,-84,-16,-3,5
-30,-46,20,-73,114,7,-1,-90
2,-14,-6,107,-7,39,21,58
22,10,1,49,104,2,-25,0
4,8,1,8,-21,10,14,25
-8,-28,-18,-34,-9,-23,-5,-10
14,26,-9,-37,-33,-31,-32,9
-20,39,3,-4,70,36,-17,-49
2,-37,-27,-21,-78,-7,69,79
-20,-71,24,42,127,37,53,-1
22,18,-33,7,22,3,-22,20
-3,43,18,3,-64,-21,2,31
1,44,24,-9,24,-6,-23,-107
29,-47,25,-20,-85,-23,55,99
7,7,46,44,127,53,20,24
-18,4,-12,-33,-56,-14,-25,-20
-41,-37,-12,-72,-49,-43,-70,-102
32,43,39,83,-77,18,46,53
13,28,-12,50,127,37,31,1
-13,-13,7,-6,47,-2,-30,-65
-1,-7,-12,-19,-8,-6,-16,-8
-28,-26,-31,-29,-15,-21,-39,-57
11,-3,15,-35,-14,-21,-7,87
7,25,-1,26,37,37,35,-11
-8,3,41,18,-8,8,-25,-48
-6,5,-13,-28,-55,-46,-30,-8
0,-12,-11,56,60,45,8,23
12,10,6,-16,14,5,13,-24
2,17,13,7,-38,-21,12,47
-12,-7,2,-4,18,-4,-17,-76
-26,-23,-85,-31,127,4,5,22
17,18,62,-31,-128,-74,-22,40
19,27,59,28,-41,14,35,3
35,-18,61,74,127,57,29,34
-11,26,2,10,49,10,-2,-7
-42,-30,-34,-25,-12,4,24,18
-4,-22,-20,-25,-16,-3,3,-61
1,26,-16,-31,-30,-24,-42,-30
22,2,-12,-15,-33,-4,-19,49
-10,-18,-24,0,-128,-7,30,43
3,-7,43,18,10,6,0,16
-16,18,8,-37,-11,-10,14,-46
6,-9,-5,32,19,8,4,-11
-4,-4,9,23,37,12,-25,7
-12,13,4,-32,12,-19,-42,32
-38,-20,-30,-56,12,-6,10,-44
42,36,-9,59,-12,29,54,32
9,14,19,58,55,46,10,-16
17,17,32,-4,-37,-26,-40,76
0,-12,-44,-18,3,-4,-17,-47
-7,-14,17,-58,-31,-38,-3,5
-13,18,2,12,38,35,7,16
6,17,26,34,91,5,7,1
-13,-9,-17,14,-4,35,4,-8
22,-7,-10,6,31,6,10,85
2,7,-16,2,-1,-18,0,-34
11,-10,22,1,5,19,12,36
-13,9,-26,-11,-19,-13,-24,-23
-2,-46,-31,-22,3,-5,-1,-7
-6,11,19,-31,-9,-22,39,-19
11,-8,-25,-35,-46,-21,-30,61
-2,37,29,54,-102,-1,-29,-73
-4,-3,57,30,36,5,9,82
-13,7,-26,-13,16,-1,-16,-16
-34,-10,-62,-74,1,-20,-19,-88
25,2,-17,-3,-128,-10,49,92
-21,-33,10,18,34,10,17,-42
22,-15,4,-11,41,4,-6,47
-21,28,25,-10,-27,3,7,-32
-16,-15,-27,-18,-44,-37,-73,-45
23,18,-7,26,90,47,40,52
-1,-2,-1,-5,-19,0,31,50
7,-24,-9,-12,8,-8,-11,-24
-18,-16,-24,-8,-15,-21,-34,-9
-27,14,-14,-75,115,7,61,-49
13,18,19,27,-128,-23,-4,29
0,-66,-10,65,127,31,11,-3
-1,6,-14,-61,23,-10,18,6
2,4,6,8,-81,-22,-16,-69
26,13,9,20,-37,0,12,118
22,30,-26,1,-4,-12,-28,32
-16,-18,-20,-21,-17,-6,0,-36
0,-5,48,6,13,-1,1,12
-24,-26,-16,-28,-13,-5,15,3
-3,-8,-9,-44,82,-10,-40,-42
-14,-20,1,50,-105,36,35,4
3,45,18,71,127,72,28,-64
3,1,-4,-16,-13,-23,21,111
-3,8,18,1,21,-16,-33,-32
7,15,-14,-12,-13,-7,5,19
15,-29,32,-12,-3,1,-8,-38
6,28,-1,-13,-40,-1,0,8
11,0,-13,3,4,5,15,24
-34,-40,-34,-6,4,10,40,-78
-50,-37,-10,-29,31,-7,-16,-15
61,60,49,31,-89,17,87,59
37,8,2,21,-13,-6,-29,23
-22,-38,-6,10,54,4,-10,-23
-6,40,-23,-26,-17,-15,-16,-23
-32,-75,-5,-81,40,-17,-5,-20
-9,-15,-8,11,-84,-20,-16,45
7,-7,-43,13,-113,16,78,-34
13,37,72,82,127,47,63,32
2,1,-20,-24,-25,-31,-56,-40
2,-15,-15,-24,5,-6,-6,34
-10,0,1,-21,-16,-16,-4,7
-4,-16,-48,3,8,4,-15,-18
-7,9,42,-14,-41,-10,3,3
-17,9,-4,-32,-82,-24,-14,-23
-4,-20,-40,53,104,38,73,3
5,-2,14,-12,22,-10,-24,-32
13,2,78,1,-28,6,6,9
6,-4,-9,-12,-35,5,5,18
13,2,78,1,-28,6,6,9
6,-4,-9,-12,-35,5,5,18
-4,17,-37,12,34,7,-4,56
-16,-6,17,-4,16,-15,-28,-57
