Channel_1,Channel_2,Channel_3,Channel_4,Channel_5,Channel_6,Channel_7,Channel_8
73,127,20,35,35,6,3,5
-20,16,82,127,17,11,7,24
18,6,-42,-128,-36,-12,3,47
43,10,73,112,35,-12,-4,-14
-111,-39,27,34,36,-8,-43,8
-5,-6,-44,-9,5,21,40,-89
72,37,13,-17,15,-35,7,12
12,-7,-25,-46,-128,-15,0,104
-2,-5,66,115,127,33,14,-26
16,14,7,-57,-128,-13,9,73
0,-7,-26,109,107,14,-5,-8
-6,-3,-4,-15,15,-2,-17,-24
-10,-7,-7,-22,-4,-13,-12,-47
-12,-2,0,2,45,29,2,22
0,-7,-6,65,-4,14,13,22
-12,6,7,-11,44,14,-5,-10
35,7,-62,-35,-13,-1,-7,-55
15,35,125,-52,-6,-17,0,-1
-15,-54,-34,9,-8,-22,17,23
19,-7,18,13,-21,4,10,0
21,56,-3,11,-22,-1,-2,5
6,20,3,18,40,-2,-5,13
-3,-5,-46,-10,-11,5,-1,-9
-25,-11,-5,-50,-24,-12,-13,-22
-8,10,-2,-46,-54,55,22,16
24,27,12,23,-17,30,21,-14
2,2,-7,-6,-68,-13,5,10
9,4,31,20,48,6,3,36
-32,-33,-46,-18,29,-4,-11,-28
-19,-47,-5,-7,0,-12,-1,-21
12,-3,11,22,-24,-2,0,-13
-7,7,2,2,14,-1,-2,26
-37,-20,-19,-31,-14,-2,-12,-19
-40,-14,4,12,47,-7,-12,-22
29,-3,13,24,73,22,19,12
14,-57,-3,54,80,14,3,3
-38,10,-11,-22,-43,24,-3,-6
50,30,-14,2,-27,-63,-13,-4
-43,-38,-16,41,15,-28,-1,-58
44,-128,57,0,5,12,22,11
26,127,27,-14,2,10,3,62
42,127,-5,-11,-4,-20,-13,-7
-31,99,-107,-44,-40,-8,-17,-26
9,-38,58,-1,23,4,-4,-18
-93,-110,37,41,13,-1,3,-9
8,113,-61,33,-5,3,5,23
-21,-13,-43,49,-36,-14,-11,-13
3,3,-20,-3,8,-7,-9,-11
1,18,6,5,-7,-3,-10,-5
14,34,29,18,32,-1,10,14
-4,-21,3,33,5,-2,-5,-8
-19,26,-2,1,5,-5,-6,-9
-2,105,15,-8,54,33,-7,-26
85,50,51,35,-8,-1,11,46
-23,-76,-77,-51,-48,-28,-22,6
6,-7,32,20,32,-2,16,32
-22,22,-3,11,-14,-28,-19,-6
4,-9,-28,-11,5,0,-5,-66
-30,-30,-23,-6,-16,-9,-8,-34
-39,-17,-11,-27,34,6,3,68
-97,-107,-12,21,-9,-62,-33,-128
75,-55,50,127,58,52,7,66
21,127,11,27,12,38,53,127
51,-81,46,-66,-10,25,28,82
21,127,-43,-66,-40,-15,14,-14
-37,-110,-98,-57,-63,-39,-34,-32
-48,-23,-9,-63,-46,-26,-17,-26
-32,-31,0,28,-18,17,3,-29
-21,-114,1,23,79,22,-1,-21
20,3,34,15,31,17,7,5
-24,67,60,34,58,9,-5,-23
21,31,5,43,-4,-14,-3,-2
1,33,1,105,16,-31,-4,-4
-9,-1,-15,-125,-37,-21,-21,-11
-26,-38,1,19,7,10,0,-10
15,-48,-23,52,96,25,20,-4
-12,127,15,-3,-1,-2,3,54
23,-16,18,-77,-29,3,-2,-12
-5,-128,-62,-26,-15,-10,-4,-10
7,87,4,6,-3,-3,0,24
-14,48,-41,-18,-24,-28,-24,-23
-7,15,-4,2,22,6,-7,-9
-31,-46,1,-28,-14,41,-2,-7
8,62,32,-38,-46,-38,4,-10
-5,-64,-38,10,-64,-10,2,-7
8,20,4,28,33,3,7,16
4,32,16,19,95,26,27,28
9,17,1,-7,-36,7,-3,-32
-31,88,17,0,3,1,-11,-48
94,-46,55,27,38,23,26,106
-36,-11,-114,-46,-34,-13,-12,-49
4,51,-23,-19,-15,-9,-11,-2
-16,-128,1,-2,-6,-3,-11,-10
-33,87,21,-1,30,4,-11,1
1,127,61,21,5,2,23,7
127,-5,94,32,8,3,14,21
-10,-86,-128,-18,-34,-22,-30,-2
-12,-3,-24,-14,-21,-12,-10,-13
-22,-37,-25,12,17,-2,-3,-3
-6,2,-4,-29,1,13,5,-6
-14,-26,83,120,45,14,3,0
-18,22,7,-13,24,-13,-23,-13
11,28,-22,-62,-119,-5,2,-12
-2,2,10,-28,23,-4,-10,0
-3,-29,12,85,-45,8,11,1
0,-39,25,62,78,11,9,8
4,23,-33,-43,-24,-5,-4,-8
-12,-7,-27,13,21,-5,-3,7
0,-73,4,12,22,18,1,0
-10,-27,-16,-35,-45,-14,-3,1
3,49,-8,-7,-22,-26,-14,-3
-37,-52,-45,4,4,-11,-5,-29
1,31,24,4,34,15,8,-6
17,-17,26,-10,-21,6,23,0
-1,-6,-61,-46,6,-29,-34,-20
30,22,9,22,-44,33,45,63
-7,-19,-7,29,31,2,1,27
-35,-59,-1,4,15,0,-1,-47
-7,127,-1,-11,25,-2,5,31
36,-23,55,40,-61,4,-1,-16
-31,-3,-101,-46,-17,1,-12,-25
18,-45,-13,-27,-8,-3,-5,-15
41,17,2,-17,-56,-16,3,17
-15,-12,4,27,31,13,6,15
-11,2,-13,3,40,1,-2,-7
-19,-69,53,2,-96,-3,-8,-10
-1,13,107,55,73,8,11,9
21,127,28,-48,2,-10,-14,-28
16,-128,-116,-53,-50,-18,-12,-37
-11,-58,-82,-10,39,-22,-19,12
1,-7,-7,19,69,4,7,34
-7,-10,15,54,-52,14,4,-2
-28,-26,8,7,4,12,-11,-24
-14,-38,45,14,16,5,-8,-21
40,81,33,-7,11,-2,13,15
9,47,-4,-13,-6,-1,-5,-5
-22,18,5,-39,-3,6,-11,-2
2,9,12,7,-16,-11,9,7
-11,-36,-17,35,100,17,-2,-6
-14,6,0,34,30,-3,-5,-6
-2,17,27,0,-12,-4,-11,-28
15,-38,-13,4,-10,1,-22,-46
46,15,-36,-23,-11,-1,51,102
-40,-21,-5,-20,21,4,11,-19
16,-3,3,-13,-59,-10,8,24
9,14,-14,-1,-6,16,-4,18
-10,43,21,-33,32,-21,0,8
-25,-59,-12,21,-41,2,-36,-81
23,7,-3,-21,-55,-18,4,35
-9,34,14,64,127,28,-3,-11
-1,127,12,18,-10,0,6,-4
47,-120,14,67,21,28,30,26
-28,-88,-49,10,43,22,-8,-19
-28,93,76,9,2,-2,13,-10
-23,-128,-42,-36,17,-12,-10,-10
3,127,-39,-32,-58,-24,-20,-13
-25,72,-7,-41,52,21,17,-1
102,127,87,-15,-17,3,-1,20
-33,-87,-118,58,-25,-19,-21,-13
-12,-30,-9,-11,19,5,-7,-7
-14,61,43,-46,-5,-29,-17,-15
-9,-29,67,44,-59,10,10,-6
8,-50,-40,41,24,2,1,-23
-56,-45,-8,-49,11,-4,1,37
-1,39,12,-41,-66,-15,-11,-1
-1,-4,-15,11,-67,-10,-1,-3
-20,-13,-9,14,45,-13,-29,-24
6,51,25,-19,-18,-1,-4,-99
27,4,-10,-15,10,5,28,127
26,15,7,35,1,5,10,25
13,-19,-4,-8,-65,-12,-3,-23
-23,-22,-24,-23,19,-13,-21,8
6,54,10,-12,1,-3,-20,-26
-31,26,3,3,1,-5,-12,-16
-2,-8,-3,20,61,27,49,-5
45,-20,27,30,29,16,-2,0
-4,-70,-21,-3,-36,-31,-8,-8
17,-24,45,21,0,20,39,47
17,127,-33,-21,-33,-13,-26,-28
-31,-56,-22,-81,-16,-30,-17,5
-1,20,5,58,34,33,9,-30
13,27,14,48,-22,-1,5,-5
7,-27,13,25,-33,-1,45,80
-51,-12,-35,-18,11,-2,-23,-40
-13,-81,-10,2,10,-8,-6,-19
16,127,-16,-3,-7,-7,-9,-8
15,-49,35,-39,5,-9,-8,4
7,71,41,-5,-36,-3,4,3
7,-13,-30,-37,-11,-16,-13,1
-22,-31,-73,5,-55,1,-24,-13
-28,39,23,66,53,3,-4,-67
23,-128,51,-61,-54,8,13,30
3,127,-72,-34,-26,-33,-12,37
-16,-7,-57,-44,-59,-4,-3,-18
-20,-32,-44,51,28,-17,-14,-17
1,1,-25,-113,-40,-22,-13,-3
-5,-14,7,1,-89,-5,-4,-11
-24,-50,-24,-1,35,6,-7,-6
-26,-50,-34,-64,-62,-11,2,-12
16,17,50,113,16,13,1,-5
4,6,-21,-21,-8,-10,-7,3
-15,-10,14,26,3,4,4,-12
-26,-47,-10,-25,9,-19,-18,-5
1,4,-6,-33,-39,-12,6,-4
-36,-26,-34,8,-26,-1,12,-11
19,64,41,40,65,19,13,49
-1,-120,-12,6,3,-12,-26,-43
18,-46,-4,-5,-8,-5,7,-19
30,127,-38,-33,-25,-27,-9,15
-11,7,3,-1,13,-3,-16,-5
-10,-1,14,1,7,-5,-7,-18
-43,-20,1,33,21,1,4,7
-29,-45,-8,-18,-9,-17,-1,-78
33,23,5,14,45,21,37,58
-11,-52,-32,-47,-17,4,13,21
-22,25,21,41,-32,-15,-10,-15
50,47,31,74,49,18,13,9
-4,17,-27,-42,7,0,9,0
-16,24,19,-5,-20,-12,-15,-21
-15,-42,-22,-25,-12,-7,-10,-13
-14,-2,21,-30,11,-10,-11,-9
4,-14,-15,13,-17,0,2,12
0,8,-12,59,127,37,5,-7
1,-38,-35,-4,-11,-11,-10,-4
13,18,75,-45,-15,-8,-5,0
-25,-2,1,23,46,1,-6,5
-8,-63,14,-7,-11,-3,2,-10
-3,-19,-38,-50,26,12,-11,-15
49,127,-9,-14,-51,-29,-14,4
-11,15,7,54,-14,8,18,18
-13,-47,-11,-10,-13,-2,-8,-6
6,3,9,4,25,22,8,4
19,19,18,16,26,-19,-1,6
-23,-27,-23,-79,3,-6,-10,-16
-18,-13,-1,99,127,43,26,-6
39,-60,22,50,34,13,13,55
-45,0,-54,-51,-13,-7,-20,-21
-5,-11,-24,-51,-16,-18,-14,-15
8,44,7,-7,-1,2,-12,-10
24,31,22,46,23,-8,13,7
-9,-37,-20,-33,-10,-16,-2,8
-13,-88,-35,-21,-19,-2,1,-2
-42,-117,-39,-10,-25,-6,-8,-8
46,-38,15,-29,-98,4,19,12
5,127,26,49,86,7,-14,-16
0,4,5,20,-30,5,2,31
-9,2,23,25,-4,10,1,-14
0,37,46,-4,3,2,6,10
-3,-35,-18,-63,-1,-5,-8,-7
-24,-46,-17,3,-32,2,2,6
-11,38,-22,18,-16,1,-4,-4
43,6,48,33,34,23,17,13
0,-29,7,3,13,0,-14,-16
-10,13,-32,-2,-25,-5,3,-2
-11,-9,-15,-10,-7,-1,8,10
-6,-7,26,-8,50,5,1,-4
-19,-40,-14,4,-21,0,-7,-4
20,22,-15,-14,1,-10,-7,-9
13,49,-23,-76,-14,-1,1,18
10,11,2,-46,-59,-26,0,17
-4,-10,11,114,127,21,17,2
-1,-12,14,9,-5,1,-5,-5
-10,-19,-13,9,37,5,0,-2
6,-26,7,-31,-61,5,11,7
-1,22,39,11,25,1,-2,-1
-52,-105,-43,-20,-1,4,-11,-12
1,28,-22,-4,-1,-19,-12,-2
34,-22,13,-12,30,2,-7,-9
-7,0,-25,-32,-52,-21,-7,19
-20,36,4,-11,-28,20,20,-10
66,-39,46,23,-43,-19,-8,17
-48,-70,-79,-7,4,-1,-3,-21
-13,-53,-11,-1,27,-4,-6,-4
41,127,25,-4,-37,-3,2,3
-22,-1,-46,-9,-50,2,3,1
-27,-49,83,5,29,-4,2,3
27,40,-2,8,40,10,8,-45
11,56,-25,-5,-51,-16,-7,49
-1,-4,1,-41,-24,-8,-3,16
-21,-37,-5,20,9,-10,-4,-3
-41,-14,-17,-5,32,15,-3,-16
10,-20,37,34,52,-10,3,2
14,100,-28,-50,-40,-33,-25,-32
-8,18,-37,5,-90,-14,-8,-1
-2,10,31,48,54,11,8,1
-26,1,-2,-22,-52,-5,1,-7
7,-40,-2,40,99,28,9,5
-22,-83,-26,-95,-29,-12,-9,-7
7,40,53,-28,-128,-8,3,1
9,12,44,60,49,28,17,-5
12,-11,-7,23,47,7,4,41
-9,-32,-9,-14,-5,-6,-12,-9
-34,-22,-9,-17,79,16,-13,-15
-28,-16,20,-24,28,-12,3,-13
127,57,56,71,-62,27,43,68
3,34,-58,-23,4,-15,-16,-15
-9,15,-11,-9,1,-16,-10,-8
-14,-25,16,16,11,-2,1,1
-17,-19,-18,-46,20,13,1,1
-22,4,-10,-36,-37,-16,-6,-10
-12,2,14,26,-7,13,7,-2
13,-14,18,14,0,11,9,6
20,37,12,23,37,1,5,0
1,-4,-10,0,-16,-15,-11,-3
-80,-69,-32,-18,-26,-2,0,-15
-6,-113,-2,-20,-21,3,-1,4
67,127,47,30,25,-5,-9,-16
9,-40,-24,-6,22,-5,-6,25
-27,-41,-34,20,-1,-6,17,-8
-27,-41,-10,-60,-39,-12,-9,-8
-5,-1,35,6,-46,-7,-1,-5
19,112,35,-5,50,2,-3,19
-7,31,-41,-30,-44,-14,-15,-14
0,25,22,29,11,11,4,-23
-19,-32,-2,30,62,8,-6,-63
-7,-95,-41,37,33,13,25,66
5,33,1,41,24,-4,2,12
-26,19,0,-128,-47,-10,-8,-14
-9,-32,19,5,127,16,3,5
26,61,-38,-38,-98,-17,-14,-11
-12,15,-1,70,103,15,-1,-16
9,0,1,9,70,10,-1,2
-2,-8,4,-4,-6,-11,-3,-6
-25,-5,8,-4,-19,0,4,-4
-1,-29,-4,-10,-8,-11,4,10
3,-7,8,-3,19,21,-10,-28
3,-68,-15,-47,-76,-11,1,7
-16,-28,-21,26,45,0,-5,-1
2,14,16,-26,26,-12,-5,-8
-12,38,-27,16,-22,8,-1,-7
47,33,53,27,-14,4,25,50
-51,-31,-38,-17,-13,-21,-21,-28
-1,-80,2,-36,-55,-18,-7,15
6,-97,-8,29,42,33,13,-12
-41,127,-59,39,5,0,-15,-20
-6,-75,2,-55,-40,-33,-16,-10
-12,-61,-22,-1,-1,7,9,-3
-14,-81,-7,-12,-17,-4,-5,15
-13,47,11,16,33,13,-4,-88
49,19,-8,-13,-55,6,15,22
15,50,-12,25,34,-8,14,25
18,-87,17,-13,3,-4,15,93
15,13,-1,36,95,21,4,24
-31,-83,-40,-8,-32,-4,-9,-13
-3,80,59,20,13,9,7,-2
-9,-25,-39,8,-16,-12,-29,-29
-12,38,-21,-49,11,-14,-7,-4
-12,-25,1,-12,-42,-4,-5,-2
1,26,19,6,-37,2,5,-17
-3,-46,-9,39,61,18,1,-13
-17,-22,-13,-17,-28,-23,-6,1
-19,-56,23,57,127,31,10,3
13,127,29,10,56,13,8,-1
61,15,21,26,-61,3,4,21
-11,18,-7,-68,-59,-28,-16,-13
-9,-5,4,-28,-51,-2,4,1
-28,9,-19,46,77,15,-2,-7
5,-3,-7,8,11,9,12,1
-18,-128,5,-36,-46,-16,-9,-10
32,88,0,23,91,15,10,29
8,37,-5,-17,-16,-16,-8,-5
-3,-25,-22,-19,-87,-14,-5,-1
-7,8,-1,-7,-16,1,-1,-12
-4,-28,13,10,29,6,-2,5
-14,-39,4,-6,-5,-26,0,-1
23,-26,-5,-20,-11,5,6,8
5,66,24,30,36,12,10,8
37,59,-32,-4,21,2,6,19
-14,8,17,4,-34,-19,-15,-14
-20,20,31,2,30,5,1,7
10,31,7,-64,-57,-11,0,10
-27,-104,-28,84,33,-10,-5,-21
-4,-128,-59,-14,1,3,-2,-12
-1,127,34,13,1,0,-17,1
-15,116,33,-32,-29,-11,-7,-64
4,-114,-12,-47,-7,7,24,20
51,-31,-39,-26,-3,-15,6,107
-13,-40,15,3,5,5,-11,-17
64,127,35,31,44,21,17,22
-13,54,-44,-37,4,-21,-39,-44
-48,-38,-35,8,-43,-5,2,-53
44,-4,51,20,25,17,27,94
-5,127,39,6,-21,-3,-8,-9
34,-128,101,33,65,7,9,7
-30,-30,-128,-128,-44,-28,-22,-25
-12,41,-28,114,117,18,6,-14
-19,-1,-17,-7,50,-1,-3,-9
-6,9,17,51,-128,11,11,3
-10,-9,-7,13,21,-1,-4,-8
6,1,20,17,23,-9,-5,-4
5,14,8,-17,-7,-32,-1,0
8,20,6,-39,-17,-10,4,1
1,4,20,-24,7,-15,-8,-2
-14,-43,-21,-7,26,1,-10,-1
-2,-5,-3,21,-88,28,12,-12
-5,5,5,19,27,-21,-2,-10
-31,-52,-11,-7,2,3,-4,-3
22,2,30,15,18,5,1,13
35,-92,-1,-9,8,-6,-1,-1
-24,4,-67,-53,-65,-16,-15,-6
-4,-3,6,-1,-17,-2,7,17
-5,-8,1,-2,24,-11,-13,-11
-86,-113,-60,-6,12,31,5,-40
75,-36,111,56,-61,34,32,-2
14,127,7,-28,-27,-26,-17,-4
12,-5,-2,-36,-23,-3,0,55
-19,-59,-10,8,48,2,-6,-5
-43,-34,-7,14,36,19,4,-6
5,-8,58,-37,-51,-12,3,5
1,12,-34,-10,-19,1,-11,-13
-47,-73,-78,-32,-12,-14,-16,-19
7,-17,14,44,0,-2,4,-9
16,-1,-19,-57,3,-5,-4,-3
-11,127,31,-28,-27,7,3,-1
12,127,72,37,33,11,7,11
-20,-128,37,27,25,9,-1,-8
2,8,-27,-13,-57,-29,-24,-22
-17,-128,-103,-85,-38,-22,-12,2
-14,63,-38,33,39,-3,-7,-7
-12,30,19,7,-13,-10,-4,-10
-28,-1,3,3,-6,-8,-3,-13
1,-13,-2,-27,-25,15,17,12
6,42,17,57,22,10,7,-8
8,11,21,-21,-7,-5,-9,5
1,2,5,-51,-78,-16,-7,0
-9,-31,0,61,99,24,8,-9
17,14,9,22,87,21,-1,0
-12,1,-7,-35,11,-7,-7,-2
-22,-36,-3,-14,-29,-21,2,-5
42,9,30,-1,6,-1,4,17
-4,50,-30,-17,30,-12,-11,-12
-4,-2,0,18,-41,8,3,-7
-6,-3,-1,-8,-15,-4,2,-6
-40,-99,-15,5,10,2,0,5
-21,10,20,-7,22,17,3,-12
26,47,-21,-35,-17,-17,-17,-15
-19,-19,-32,1,-47,-30,-13,-28
-1,-10,-5,20,23,2,5,34
3,-115,-24,-18,-40,-1,2,6
32,97,114,23,7,23,17,38
-12,-19,-19,4,13,-7,-12,-10
-18,-21,-6,1,6,-10,1,-5
-19,-2,-6,-1,-10,-5,-10,-11
18,31,-3,0,14,5,8,-13
15,-15,23,7,-5,-4,7,36
-13,-63,-29,-21,-12,-6,-12,-3
-40,-127,-28,-2,26,8,-2,-14
26,-16,42,-11,-80,-7,8,5
1,28,-36,-11,2,-17,-15,-29
-11,-33,-10,49,45,17,12,41
-36,-4,4,12,9,1,-4,-10
36,127,73,-30,-31,10,6,9
23,33,0,-17,-98,-8,-7,-6
-28,-120,-92,-15,-9,-20,-25,-27
-11,-25,-3,51,93,5,5,-3
-7,-13,4,-25,25,1,1,-7
-7,-7,0,-28,-89,5,1,-15
7,21,24,22,9,-7,-4,4
-8,107,-17,-56,6,-16,-10,-1
29,-86,51,72,86,40,27,20
-4,-32,-39,3,-26,-14,-25,-20
-10,6,-4,-16,-44,-14,-15,-7
-14,5,-1,-10,51,5,-2,-4
-19,-37,1,-15,29,13,1,4
23,-32,12,37,-37,3,11,-12
8,55,-34,-26,-37,-12,5,22
-4,22,-4,1,-13,5,-8,0
-7,-1,2,27,56,3,13,-1
-9,-19,6,-12,-16,-5,1,0
-3,-3,0,-6,-31,-8,-9,-7
1,-21,5,7,-6,11,5,-4
-1,16,7,2,11,-1,4,2
-4,-8,2,7,30,-5,-9,-5
-1,46,-20,-31,7,-16,-9,2
-23,-59,-28,11,-23,-10,-4,-26
-64,-6,-19,4,-8,5,-8,-38
21,-75,-4,-39,-29,-13,-4,11
8,-23,-46,12,-16,-17,-5,3
30,-128,26,4,-22,2,8,50
49,127,37,49,90,21,15,18
-23,10,-59,-39,-32,-19,-21,-28
3,-44,-2,8,-10,10,8,19
-20,-36,6,-4,12,11,-6,-10
1,-109,-3,-6,-18,2,-15,-32
-52,27,2,21,33,5,-2,-73
13,-128,63,13,6,12,33,118
68,-52,22,-84,36,7,6,49
-10,127,-104,-38,-55,-24,-39,-36
-23,17,14,94,14,-2,9,11
-14,-11,-10,-6,-7,-3,2,-25
13,-2,6,-14,-4,-5,4,20
-3,-33,6,-32,-19,-6,-2,-5
-3,-12,12,24,21,2,5,-2
-6,-17,-8,7,23,-10,-13,-8
-5,-16,20,29,-83,27,-4,-8
-12,-93,4,41,25,3,3,7
3,58,10,-2,22,-4,0,3
27,127,4,-19,19,3,-6,-3
-3,-12,-14,-21,-27,-32,-21,-5
-4,-19,-20,-56,-93,-7,-1,-6
-8,-17,28,88,71,25,5,-5
-5,3,-23,16,5,4,-4,-1
-6,7,0,-21,5,8,1,1
4,-29,11,-13,2,5,4,5
-21,-36,-10,-16,6,0,-3,-4
-6,-80,-1,-43,-16,-19,-4,-10
25,127,3,-18,-14,-1,3,2
5,-37,8,4,47,-2,-12,-1
-4,-3,-7,-17,-70,5,9,2
-15,-11,-18,-2,-10,-5,0,15
21,-1,7,21,12,-11,12,5
-6,95,49,-1,8,-7,-14,-17
-43,-84,-14,-5,0,-9,-10,-37
29,-80,-8,-18,-8,-5,2,-5
7,72,-55,-41,28,-3,2,43
-40,16,24,27,-35,8,-3,-27
27,18,47,13,30,-6,-7,-2
-16,58,-39,-27,34,-23,-19,-17
8,1,-4,16,-73,7,5,-3
-13,-23,-9,20,42,-12,-4,-9
-18,4,25,11,32,6,-2,-12
1,-85,0,3,21,16,-1,-5
-3,48,4,-13,-56,-11,-6,-9
3,18,-26,-25,-16,-15,-12,-8
-3,-2,-4,-42,29,2,-7,-2
-3,-1,-2,10,24,-1,2,1
-1,0,17,-2,-36,-10,0,-1
3,-53,-11,115,76,24,10,2
-28,-37,-4,-55,19,12,-6,-12
-21,-3,-5,-45,4,-26,-10,-3
51,40,61,117,29,46,20,1
-4,-62,-21,-3,5,7,2,-12
3,10,-38,-62,22,-9,-3,33
-3,7,-3,-26,-69,-6,-5,0
-10,-14,18,14,-40,-13,6,-8
-7,-28,-46,-57,-71,-7,-4,3
-14,26,54,-14,-19,-19,-17,-17
5,42,7,-4,-12,-11,0,14
2,-35,-3,51,44,-3,-2,-6
6,62,47,-17,-33,5,1,4
5,-8,-42,-31,-12,-13,-6,-6
4,-57,27,-45,-78,-26,-2,0
-23,11,-8,64,-61,-1,13,7
-34,-69,-27,16,-10,16,9,-2
35,127,38,21,39,16,14,26
24,-36,-2,-30,-23,-10,-7,-4
-1,-13,-27,-27,-12,-19,-15,-19
-10,-10,-11,-28,20,-20,-7,13
-2,-38,-15,-10,-104,5,6,14
-8,-35,32,8,-1,14,10,-9
-30,45,5,-2,26,-6,-2,-9
16,7,20,16,33,13,10,6
7,8,6,-47,-44,-13,-13,-22
-18,-52,-38,-14,12,-4,-11,-11
-19,-7,-9,-9,20,4,-3,-5
0,-35,-31,-35,27,-8,-4,3
3,-5,43,14,-40,9,7,4
18,63,23,62,63,0,-6,1
-7,19,1,-4,24,-7,-4,0
-12,-43,-24,-27,-12,-9,-11,-4
4,31,20,-17,6,-19,2,12
-15,-73,29,77,21,35,15,-8
-7,7,-128,-45,-26,-22,-24,-12
-5,-13,28,10,9,-4,-5,-13
-12,-72,9,30,59,0,-5,-2
-33,-21,2,-35,-39,-16,-8,-7
21,65,-68,-69,-44,21,7,3
51,17,127,96,-123,-26,11,24
-17,-49,-86,50,4,-11,-20,-31
-20,-8,11,-29,-10,-11,2,3
2,12,-18,-4,11,3,5,9
-20,55,-22,13,45,16,-1,-4
10,-112,-12,-28,12,-18,-7,9
-9,0,-25,-30,-58,9,10,-2
-59,-69,-12,35,40,21,1,-18
-18,-35,8,-2,17,-1,17,10
86,127,6,-32,-64,-38,-27,-20
9,-13,0,65,82,22,15,25
5,2,23,10,-1,20,0,13
-14,-23,-8,-10,-31,-8,-7,-17
-6,-80,16,34,15,2,5,0
-8,0,-12,-68,-28,-15,-5,-1
-11,-43,-26,-2,28,-5,-19,-16
-3,46,-48,-67,5,-38,-22,-4
-6,10,52,106,8,33,21,7
-10,-10,10,23,53,-3,-3,-6
-8,-6,21,-14,2,-2,-4,1
4,4,-21,-49,-32,-2,-5,-10
1,-38,-66,-15,22,-14,-5,12
1,-30,46,70,25,35,14,10
4,37,67,7,9,10,6,-8
0,39,-14,-28,-2,-19,-16,-11
-4,2,-14,-35,43,-10,-10,-8
10,-5,0,60,-98,2,7,7
-13,-21,-54,-14,7,1,3,6
-1,-22,-8,-6,18,-10,-8,10
6,74,46,-20,-44,-20,-25,-27
-2,-1,39,17,-5,2,13,7
5,-101,-16,-14,-2,4,-4,6
-21,26,-44,-54,-9,-14,-5,-11
-11,4,-62,-15,30,8,-7,-25
-9,-14,-11,-44,-28,-5,1,-1
-53,-98,-20,33,-11,-38,-11,-17
13,103,33,66,92,42,34,16
63,27,29,5,1,-1,-14,-8
-20,16,-56,-9,-42,-21,-15,-25
5,4,-11,-40,9,3,1,14
-2,-7,-10,-19,9,-3,0,4
1,-44,-4,-32,-24,-10,-16,-15
-73,-53,-8,3,-20,-9,2,-27
27,69,5,32,5,12,4,1
23,41,37,17,23,3,6,22
19,-34,-2,5,7,1,3,4
11,-5,-34,-28,-1,-18,-10,7
-12,-6,-5,0,-54,-9,-12,-14
-4,42,13,7,14,5,-4,-10
3,-44,18,-10,-47,4,4,4
-6,25,4,-34,-35,-9,-5,-4
-3,24,10,47,-18,-3,6,2
-1,-25,-11,23,44,26,17,6
-1,17,-19,-63,-17,-9,0,-2
-4,16,1,42,70,12,-1,-7
3,-14,6,-4,-23,-1,2,-2
-7,-7,-30,7,19,12,8,-2
-12,-18,22,-13,6,-11,-3,-3
1,20,-50,14,-15,-1,2,1
2,-28,51,51,55,24,20,28
-37,-128,-43,-121,11,-47,-51,-52
5,-8,-47,-39,-56,-28,-7,-21
11,22,9,84,-25,37,16,4
-4,-5,14,50,46,17,-1,20
-3,4,21,-5,5,-4,7,10
-2,53,21,-17,-4,-6,-8,-1
8,-29,-1,-17,6,1,-12,-7
-1,-56,-10,-12,-9,-4,-3,-8
-19,61,-13,-8,-2,0,2,-8
16,47,6,-17,8,26,12,24
-13,4,1,2,-5,23,5,-7
28,-33,1,3,-4,7,20,16
-6,-7,-18,-26,-28,-9,-19,-19
-18,-50,7,10,3,-12,20,26
-4,25,-7,7,0,3,-6,-9
2,1,-23,-27,-37,-12,-8,-8
-5,50,27,-22,26,2,6,17
-21,24,-23,33,-2,-2,-21,-42
-10,-22,-10,-14,-60,-6,2,-8
9,11,37,-23,-7,-11,-3,31
10,-11,-1,-7,-24,-9,4,2
4,-5,-6,-2,71,20,11,2
-5,-21,-4,40,12,10,-1,4
9,-8,6,4,-8,-11,1,1
-7,0,-9,-34,19,-8,-11,-9
-20,8,-12,-15,-63,-14,-5,-3
23,-6,-31,6,-8,19,7,-8
8,-5,49,11,-2,-5,-6,9
-8,21,-26,-24,12,-6,-5,-6
-4,-27,46,-5,-22,-9,-7,-7
-13,-5,-10,17,45,6,-1,-8
-21,-71,-17,-24,-27,-2,-1,-5
21,39,2,20,20,8,5,7
-6,43,2,-16,-11,7,-2,-5
5,0,15,36,-56,-19,-2,4
6,39,-17,20,41,11,13,13
-45,-36,-46,-85,-35,-19,-9,-9
20,-86,35,50,74,28,9,9
-3,40,-21,-13,2,-9,-7,-23
12,24,-18,-23,-38,-15,-7,17
-19,-7,21,-5,-17,-5,-1,9
19,52,17,-10,36,25,8,18
-11,8,-10,-7,-54,-10,1,10
-16,-70,-18,31,12,5,1,-24
21,100,19,19,-10,2,6,0
-14,-25,0,-12,-1,-5,-16,-14
12,127,32,-9,-5,-16,-2,9
-22,-117,2,-23,-26,-17,-9,1
16,-40,-38,-10,24,3,0,-12
1,-14,-13,-5,22,-12,-12,-6
-8,-18,-6,5,-30,3,6,6
-15,-22,-6,6,-1,0,3,3
39,83,19,4,-9,9,-1,7
-8,2,-18,-24,8,-2,-1,-1
-5,-53,9,-28,-8,-12,-12,-11
3,-7,-8,-13,-100,-12,-1,-5
1,55,7,32,45,1,-9,-4
-28,-20,-8,-33,-49,-11,-8,-6
-4,-30,14,-13,34,-7,-1,-5
-4,25,-47,0,-35,2,3,-10
-4,23,-38,28,60,16,5,4
7,-50,67,40,26,-3,-1,4
1,72,-3,-43,-65,-10,-10,-10
-24,-46,-16,-9,45,-6,-2,-6
-13,-40,-15,8,5,-5,-3,-15
27,14,-1,-39,-30,-10,1,8
-27,-19,-47,1,4,-7,-11,-13
6,14,56,14,9,9,12,11
11,-5,-10,0,-16,1,2,3
-4,2,3,35,9,5,11,8
38,-8,33,-1,20,6,1,10
-9,127,-20,-34,-47,-26,-23,-20
-23,11,6,0,-51,-12,-3,-4
2,-43,-9,-52,-15,24,9,12
3,21,-1,26,26,-9,-6,-11
-8,-7,-2,-17,-15,-5,-3,12
-12,-25,-10,4,20,0,-9,-3
0,0,17,11,-14,7,0,-19
-7,-28,-20,-43,-14,1,1,2
-20,-12,19,45,55,1,4,-16
-16,14,-12,0,-55,-26,-6,-1
44,80,42,30,122,29,17,28
-20,-83,-38,44,-34,-2,-4,-4
18,-28,-22,-20,-11,1,-1,9
-36,-60,1,4,21,-7,-13,-19
0,3,-13,-66,-2,-12,-9,0
23,37,-39,59,-128,5,8,5
2,32,-4,-6,19,3,-7,-10
-23,-10,44,-11,31,-11,-11,-10
-8,46,9,-99,-56,-7,5,5
25,-4,22,127,-11,30,15,11
0,4,-28,-2,6,-1,-5,-8
-2,-71,-12,-38,4,-4,-6,2
-18,25,-5,-10,-15,-6,2,-2
-18,63,9,-25,16,-10,-5,-7
32,-55,6,6,35,6,2,5
8,19,-15,28,-103,-11,-7,-4
-9,-26,-7,-36,-7,-14,-16,-20
-2,8,18,4,64,7,-4,2
0,11,10,-1,-26,-4,-1,1
-1,9,2,7,-43,-8,1,-1
-13,-41,6,10,21,2,14,3
-6,9,5,-15,-5,-11,-15,-6
2,34,-24,-32,19,0,-14,-21
2,-22,-15,1,-57,1,3,-10
-4,-7,-6,-6,-3,9,6,7
-21,-55,-20,30,-5,5,-4,14
7,51,37,6,34,7,11,31
68,29,45,19,21,-7,-12,-4
-9,41,-65,-81,-48,-23,-10,-2
-13,7,3,6,23,-8,-8,-12
-3,18,0,40,19,28,20,5
0,-3,-7,8,-3,1,-2,-3
-9,-31,-14,-9,29,-4,-10,-13
-41,-61,-24,-25,-71,-20,-3,-9
-27,-28,22,-15,45,8,8,0
98,127,50,-11,-79,3,4,25
-19,-33,-28,-7,18,-12,-29,-26
-11,-6,-4,1,11,-15,-1,4
-32,13,-4,-51,42,1,4,-3
75,-32,29,5,-110,-2,12,29
-8,40,-16,60,18,8,-3,-10
-5,6,-14,39,74,17,6,0
-8,-9,2,-4,-19,-3,-9,-5
-4,-17,33,-15,34,-3,-12,-2
-14,1,-2,13,-36,-8,0,-5
5,14,9,-15,1,-1,-4,1
-12,-39,-18,-7,15,-4,-6,-4
20,21,-5,-56,1,-3,5,9
11,34,-12,49,46,17,2,-2
-3,4,2,-11,-24,-11,-21,-10
-30,-40,-3,-1,1,4,3,-16
-17,-69,-8,7,14,3,11,2
29,41,14,6,8,-7,-1,0
14,82,27,1,-22,-5,6,26
-11,-75,-59,-73,-30,-8,-5,19
-7,-9,-19,14,73,-8,-17,-12
-2,-1,7,4,-75,-9,0,-4
-3,46,13,11,-17,-3,0,-8
1,-41,15,-12,4,-5,-3,-1
-8,-93,5,23,31,9,8,2
-20,43,-17,-20,-21,16,-3,-11
41,-8,17,26,-23,-13,-6,0
-31,18,-22,-18,-1,7,-2,-16
1,15,17,-2,1,-4,2,6
-3,-35,-9,14,-47,-3,3,-7
4,9,-10,-73,-18,-13,0,3
-9,-6,7,23,-11,-3,-1,-6
-31,-36,-4,21,25,9,0,-3
-24,-30,11,-4,50,2,-2,-7
68,76,52,21,-51,2,8,17
-14,-19,-54,10,24,2,-9,-13
17,37,18,-21,2,0,-1,2
-19,5,-20,10,19,-10,-7,-2
-5,-37,0,-40,-11,-15,-8,-2
-15,-23,10,51,10,13,5,-13
60,88,74,127,127,45,19,33
-71,-53,-48,-33,25,0,-8,-41
72,-82,44,-13,-36,0,20,49
22,56,-48,-13,-10,-3,-14,1
-20,19,-14,-14,-19,-12,-12,-20
-14,-3,-4,18,-24,-8,-1,-4
-10,-16,-30,-72,12,6,-2,-2
-14,-83,8,39,80,9,19,8
7,112,30,22,-10,8,1,-2
-4,6,-11,1,-13,-9,-8,-8
-12,-13,-7,-19,-15,3,0,-3
-1,9,-3,-9,1,-9,-4,10
-8,-2,-14,-28,-16,-13,-11,-16
-9,-42,1,-11,-1,-5,3,0
2,14,12,54,51,13,5,1
-2,-83,1,25,7,-8,-7,-5
28,26,-8,-9,-43,-10,-5,7
-14,23,-24,3,62,0,-14,-14
-11,17,6,-14,-45,2,5,-3
21,27,14,4,34,4,3,12
-10,-25,-10,-53,-25,-19,-13,-2
-3,19,11,56,-106,-2,6,1
-23,-12,-16,54,31,11,2,-7
6,-69,18,-53,-12,5,-5,-6
46,110,-20,-38,36,-20,-14,2
8,4,-14,-7,-68,-18,-5,-5
-22,-29,24,39,32,8,4,-2
-19,109,2,-8,23,-5,-10,-7
41,-80,23,1,-44,4,10,-1
-11,-13,-71,-5,-45,-9,-17,-12
-10,-20,-37,-9,-14,-4,-4,1
3,30,39,5,8,3,3,7
-20,-52,-19,-9,10,-7,-1,-8
-7,-15,6,25,31,5,-2,4
26,64,12,0,19,-1,-8,-7
0,-78,5,-6,-7,2,1,1
37,60,22,-17,6,7,6,13
-11,28,-20,-6,-7,-16,-8,-15
-4,20,5,-8,-34,-13,-8,-5
-49,-40,6,-32,-17,-11,-7,-14
-70,-55,74,6,42,39,36,3
127,123,127,77,29,40,42,54
-48,-22,-128,-55,-105,-54,-59,-62
-21,-58,-35,-16,-11,-10,2,4
-18,-2,13,19,27,-11,-11,-5
-11,-1,17,-20,-17,-3,2,-4
-5,13,18,-1,11,1,-1,0
5,8,11,-9,34,5,-2,17
-1,8,-10,-9,-2,13,10,-1
23,8,13,54,55,21,5,1
-4,5,5,39,-3,-16,-15,-17
-1,3,7,0,9,-10,-13,-9
2,-14,-17,-35,-19,-19,-4,0
-13,4,12,49,70,20,8,-6
-10,0,-10,-42,-25,-23,-15,-5
7,-4,-18,28,-93,-7,2,0
9,22,-5,22,11,-5,1,6
4,-13,-6,4,37,4,-4,-5
-3,14,10,-5,3,-2,0,2
-21,-23,-11,-19,-14,-7,-7,-6
32,22,7,0,32,2,1,9
-13,-23,-27,14,-33,-7,-4,-2
-63,-56,-2,-4,16,4,0,-17
121,71,47,6,61,23,6,10
-10,-22,-50,-35,-66,-9,-5,6
-9,1,22,40,6,-1,-2,6
-20,-13,-10,-5,7,-7,-5,-7
-7,-52,-45,-15,-10,0,3,1
-21,-44,35,22,20,10,4,4
101,127,56,22,24,5,7,11
-2,49,-26,-21,-40,-10,-11,3
-7,-27,-28,-2,0,0,2,-5
-8,-25,1,14,22,3,2,-3
-8,-14,2,6,-7,8,-1,-3
-7,25,2,3,1,-3,-1,-3
-26,-93,5,9,14,4,2,-9
2,-58,14,-5,-7,-6,1,1
16,42,-19,-25,-23,9,-7,-7
-15,-33,-30,-6,6,-9,-10,-17
-2,17,-14,-11,-9,3,1,9
-21,-10,0,-54,-33,-16,-6,-4
22,1,25,9,-40,7,10,3
14,41,22,119,127,41,14,-12
-17,-25,-7,15,2,-5,-2,-1
-3,13,1,-26,30,-1,-1,15
7,22,-4,-31,-26,-22,-10,-5
-10,36,9,-2,13,12,2,-9
-19,-17,-34,-1,42,4,-6,-9
-2,36,18,0,41,-11,-3,3
7,-40,32,1,-126,6,5,2
-1,-50,-14,-16,-54,-4,-2,3
19,-13,-31,-10,-15,-13,-20,-15
-14,-15,-22,-33,-3,-20,-11,-5
-19,11,2,-13,-7,-2,2,-5
-18,-114,4,12,-48,5,16,14
21,74,-7,-58,11,7,4,0
-42,63,-21,-17,-24,-7,-15,-23
8,-53,9,-3,-28,-3,-4,-2
13,13,-11,-32,-22,-15,0,0
5,0,7,50,49,7,2,11
-8,-10,0,3,-14,1,-5,-9
-20,-52,-15,-10,5,-5,-6,-16
1,-19,11,-4,-13,10,6,9
-7,34,8,2,-3,-4,-12,-6
-5,-2,-9,-18,-21,-1,9,6
0,-15,-10,-6,-33,-9,-9,-6
10,37,6,-19,47,-1,-5,-3
-9,-44,10,26,-36,2,3,12
26,-27,-6,52,34,7,4,10
-6,13,-36,-37,-65,-5,-12,-17
-24,-31,-15,-19,-27,-9,-10,-15
-32,-54,-4,-9,-7,-6,1,-1
39,27,44,32,69,1,2,19
-1,23,2,19,-63,-4,-8,-21
-9,1,-30,2,8,1,-4,-9
-3,2,-7,-2,14,-4,-2,-2
-7,-12,0,-80,-65,-17,-12,-3
-12,-22,-4,18,-60,-2,-5,-2
-4,-16,-14,9,25,3,-1,1
20,51,13,54,55,13,5,11
-13,-30,-6,-49,-32,-14,-13,-12
-3,-7,-11,3,24,-1,-6,-7
-2,0,-9,-21,-6,1,-2,-1
-12,-17,0,2,-47,1,1,-8
-51,-104,-8,-10,-4,-5,-5,-11
51,104,50,20,37,30,22,27
57,18,18,15,44,-5,0,-1
-10,24,-83,-46,-54,-37,-30,-9
-13,3,2,3,-24,-4,-1,12
-12,-14,7,-10,-15,-8,-13,-15
-9,-12,4,14,44,6,0,0
-16,-17,14,16,43,4,-15,-5
-10,-43,-3,28,5,6,-8,3
-12,-31,2,1,18,-1,-6,-1
15,4,-10,-69,-80,-14,2,-12
-2,0,-1,66,31,6,3,-1
-1,-17,-6,31,39,1,8,12
-8,-16,-11,-25,-21,-1,1,-6
0,25,9,2,-31,-3,0,-2
-6,2,-2,-5,21,-3,-4,-7
-52,-40,-19,-6,30,-1,2,-9
44,115,52,-10,36,9,16,29
11,37,14,31,21,7,-6,-28
-21,-89,-67,-1,-46,-11,-13,-19
-7,0,-9,-11,-14,-16,-1,-4
-2,4,3,-9,-8,4,5,1
-2,1,9,-3,13,5,0,-1
-6,2,6,-6,-3,-5,2,-2
-36,-14,-7,-10,22,-2,-4,-3
-49,-128,-5,5,-14,1,11,4
127,127,81,95,70,37,33,28
2,24,-67,-69,-20,-17,-25,-4
-14,-17,-33,-29,-17,-22,-15,-5
-14,-23,-2,-22,-9,7,4,-4
-9,-24,4,36,24,1,0,2
-14,-9,9,4,-19,2,1,-4
4,-8,18,-2,23,3,2,6
-8,-22,3,-5,-8,-17,-13,-9
-6,-13,-17,-8,-115,-8,0,-7
1,-1,-2,61,91,27,9,-3
2,-1,1,-13,11,-4,-4,-3
-5,-2,-2,-3,-31,-11,-6,-2
-2,4,0,-5,3,2,0,1
-1,3,4,-22,-24,-20,-13,-2
-12,-14,2,-15,23,-6,-11,-9
-25,-6,-6,11,32,20,-4,2
53,60,44,19,-79,11,18,10
-2,-31,-41,-32,0,-11,-14,-26
-3,2,-34,-3,-13,-10,-9,17
-6,1,-2,-4,2,-2,-1,-1
-4,-2,4,-25,3,2,-1,0
-4,-2,5,-3,-34,-4,1,0
-22,-22,-5,57,76,-1,0,0
14,87,15,-37,-48,7,9,8
46,-24,27,32,-46,20,10,5
-4,0,-51,16,3,-11,-8,-3
-10,0,-11,-54,-39,-13,-9,-6
-7,-1,5,-19,-25,-7,-1,0
-6,2,12,18,61,11,4,-4
-2,8,9,-5,-5,-2,-1,1
-42,-83,-2,-5,36,-1,-15,-18
-6,87,31,6,-78,-12,13,9
127,127,96,65,29,41,19,18
-16,-72,-128,-69,-62,-44,-33,-12
-15,-11,-15,-20,-14,-15,-7,-8
-13,-13,15,4,4,3,5,1
-9,-18,9,5,5,5,7,-4
-9,-8,5,0,7,-2,-4,2
-7,-7,4,-5,24,1,4,4
-23,-15,3,-25,-15,1,-2,-1
13,9,5,26,69,14,11,16
13,27,14,90,21,18,10,-4
-3,5,-3,0,-3,-9,-9,-5
-7,1,-2,-36,-14,-16,-11,-1
-5,-3,-10,-23,-2,-5,-2,-1
1,-3,10,34,64,14,4,-2
-2,4,0,4,127,8,-4,2
3,-2,-9,-40,-128,-12,1,6
16,20,-3,20,-35,16,7,4
-8,2,-15,8,44,-6,-14,-20
-11,-14,-16,-20,-31,-13,-5,-6
-3,-9,2,-11,2,-7,-7,-4
-7,-1,3,-31,7,2,0,7
-20,10,2,-8,8,-16,-2,-7
25,-8,-1,-20,-109,-9,2,5
-9,25,-3,3,-79,-7,-3,2
-9,-48,-25,8,69,4,-6,-13
-8,15,0,4,-4,-10,1,-6
-5,-6,11,-6,-4,-9,-3,1
-2,52,4,-1,4,2,1,-4
-13,-58,-12,-6,-5,-4,0,4
15,-5,-16,-16,-53,-5,2,2
3,82,-16,9,45,16,-14,1
2,-114,9,20,18,0,18,1
15,78,3,-4,-26,-3,10,-4
-4,4,-1,10,1,2,2,10
-4,21,6,-4,-7,-1,-4,4
-7,-18,10,15,-8,0,-4,3
5,-9,11,14,52,6,-2,1
-22,-84,-12,-5,-10,-1,-8,-21
21,36,25,-6,-21,1,9,14
21,42,-14,-17,-6,-4,-1,12
-25,-33,-52,-26,-26,-8,-15,-21
-4,-32,6,32,18,-8,-2,-1
-8,-20,-20,4,18,4,1,-2
-5,-11,0,-22,2,-1,-3,-5
-19,-6,1,-35,33,-13,-10,-4
-17,-24,7,11,-128,-1,10,-1
86,94,24,66,80,29,16,19
-8,13,-13,10,17,-4,-10,-10
-7,3,8,-6,19,-3,-6,-4
-10,-8,-5,-23,3,0,-4,-2
-8,-15,-11,-8,8,-10,-7,-3
-2,-18,-13,-68,-66,0,6,3
-16,-7,-23,-54,33,-15,-11,-8
18,15,26,53,-128,-3,12,8
-5,-36,19,72,89,12,-2,-7
-2,-14,-29,-41,-17,-14,-8,-3
-1,-4,-5,-11,-20,-5,-1,2
-5,-11,1,9,23,-2,3,0
-3,58,24,7,-10,-5,3,1
12,-19,19,-1,15,12,13,10
-26,-53,-42,-8,-10,-12,-11,-16
18,94,11,-2,3,1,12,10
9,-74,6,-6,1,9,-4,-15
-4,15,-22,1,5,2,1,-6
13,37,-2,-22,-29,-9,-1,14
-15,-85,-4,-8,5,3,2,7
-1,-24,-4,-14,-57,-23,-8,-7
-18,23,15,59,93,27,12,-1
16,96,42,18,-4,-2,-5,11
54,43,42,-1,-14,16,15,0
-25,-23,-90,-49,-32,-23,-38,-35
-10,-8,-5,-8,-2,-9,-7,-1
-8,-6,5,8,2,-2,1,-1
-3,-8,2,-7,-14,0,-2,-1
-6,-9,7,1,-6,-3,1,-2
-20,-6,11,5,4,-8,-6,-1
-9,12,-15,-85,-5,-25,-10,1
36,-71,19,127,45,47,28,11
-7,19,-31,14,23,6,-11,-16
-4,6,-1,-1,-1,-7,-11,-6
-2,9,-1,-22,-1,-4,-3,-5
-9,-5,-4,-9,2,-9,-4,-11
-8,-11,3,-23,-9,-16,-9,6
-11,-7,-2,-29,-41,0,-2,2
13,8,17,50,46,12,4,2
-2,-3,-17,-42,27,-14,-4,-5
-4,-13,11,-15,29,1,-1,-7
-12,-36,6,51,-51,8,7,-6
5,38,1,7,-2,0,-5,2
5,-18,-12,-10,20,5,-1,3
-6,17,3,-10,6,-2,-2,-4
-12,-32,9,7,-13,-4,0,-7
-11,41,-5,-9,38,5,3,6
37,-4,6,-37,-18,-21,-4,18
41,106,43,77,60,33,8,-5
-20,-36,-65,-83,-8,-28,-19,-22
-6,-14,-1,3,-2,-7,-5,6
-8,-16,7,4,3,-6,-1,-2
-8,-9,10,-1,-6,4,13,1
-10,-36,-1,0,-3,2,4,-3
-15,5,15,2,2,7,5,-1
15,14,14,4,9,-4,-8,7
-3,27,-14,0,-33,-26,-16,-22
0,-19,-27,-34,-1,7,21,10
-7,-2,-1,5,6,-9,-9,-7
-19,-15,3,0,-80,8,2,-5
-31,-31,-5,26,42,8,2,-4
-12,-27,13,-29,-10,-6,-4,-4
39,30,4,77,30,10,3,3
-3,24,-7,1,51,-9,-12,-11
-6,29,-1,-7,-127,-7,-1,-7
-11,-26,-7,10,19,5,-1,-5
-3,-9,-4,-14,6,-2,-1,-1
-12,-26,-5,-13,-6,-10,-10,-3
1,6,0,-33,1,-2,-2,5
-7,17,1,-4,16,0,5,-2
-29,-14,4,-18,49,1,-1,-8
21,-83,24,43,5,16,13,14
14,47,-52,39,-29,-7,-19,-22
-13,28,-30,-55,-36,-32,-26,-19
-9,1,10,-32,7,-7,-10,-1
-4,3,8,8,14,-8,9,2
-35,-18,-8,-18,-2,-3,3,-4
-12,-68,12,-18,27,-5,-5,-1
8,77,0,23,-32,14,7,-5
11,-11,16,30,23,8,4,2
0,-30,-32,-39,-28,-8,-9,1
-11,-15,-26,-1,13,-5,-8,-4
-6,-1,11,-12,-47,-6,-2,0
-5,-4,3,-10,-32,-7,-4,-1
-7,-3,10,15,37,8,2,-1
-25,22,6,1,50,3,-7,-11
55,45,25,-20,-33,8,11,22
10,-25,-34,22,-13,-2,-13,-15
-7,15,-16,-8,-16,-7,-12,-7
-6,-1,-4,-35,-26,-16,-1,-4
-6,-1,0,-17,-9,4,1,0
-13,2,6,-7,8,-3,0,2
-14,-22,16,86,60,6,-3,-4
16,-13,-4,-37,-59,-13,0,1
3,-22,-4,5,-36,14,9,4
20,108,26,18,26,23,7,7
-19,-24,-26,-29,-7,-30,-18,-21
-11,-22,-9,-23,-15,-7,0,-6
0,-5,1,-24,-25,-6,0,0
-5,-24,-8,17,37,8,2,2
0,-12,2,-15,-29,-8,-1,-3
-20,-23,-14,-17,28,3,-2,-5
-22,-27,27,6,22,9,10,8
102,-33,65,109,61,37,22,37
-30,33,-101,-21,-35,-31,-28,-28
-10,21,0,-34,-20,-16,-11,-7
-6,-11,3,-16,-27,-8,5,4
-6,-10,12,-1,12,6,-1,-3
-11,-13,1,26,52,12,7,-2
3,-6,13,-18,14,0,6,10
-16,-28,-18,-68,-84,-12,-11,-10
15,61,18,75,14,6,7,0
-8,-21,-3,9,3,-4,-3,-13
4,-7,-14,-16,-5,0,2,11
-4,1,-6,-6,1,-4,-6,-7
-1,-1,7,-9,-29,-12,-5,-4
-9,-24,-2,-9,0,0,1,0
-23,18,7,5,27,2,3,-9
2,-84,6,-23,33,-6,-5,5
47,-8,-17,-68,-57,-23,0,10
-3,47,-20,99,55,20,3,-17
-15,6,-13,24,16,-5,-7,-14
-11,-8,4,-21,-20,-6,-5,-1
-7,-24,13,28,49,11,0,-3
0,0,-5,-32,8,5,6,4
-4,10,6,-35,-16,-14,-8,-7
-26,-18,14,-51,20,-19,-16,4
26,36,12,26,-75,-6,11,6
6,-24,-23,120,105,20,-3,-15
-6,-25,-21,-15,0,-11,-3,-9
-7,-1,6,-6,7,-5,-5,3
-6,-7,2,-44,2,-3,-3,4
-3,3,9,-2,-2,-3,-1,2
-3,4,-3,-4,-1,-4,-2,-5
-35,-37,5,-31,-20,-9,-6,-7
25,38,24,35,10,5,9,19
16,26,-14,-8,33,-10,-9,-16
-6,8,-13,11,2,11,0,-10
-3,1,5,-2,32,6,3,3
-5,-8,2,19,-21,-11,-2,-2
-7,-17,-4,-16,-18,-6,-1,-1
-10,-10,9,14,-17,-3,-6,-4
5,-26,3,16,5,1,-1,-2
-38,-124,-38,-52,51,0,-9,-10
-45,20,15,18,-11,-2,4,-15
76,3,38,54,69,34,16,2
-13,-37,-118,-67,-75,-53,-41,-10
-13,-4,-7,2,21,-5,-3,11
-6,-14,9,13,26,3,3,-2
-10,-14,12,-9,4,7,5,0
-4,-8,6,21,8,4,1,4
-24,-45,-6,-51,-8,-13,-11,-12
28,37,-4,4,-62,-10,6,12
27,36,27,114,127,37,30,19
-4,1,-9,-2,10,-2,-5,-12
-3,2,-3,-4,-11,-8,-9,-9
-7,0,0,-31,9,0,3,-2
-8,-10,-14,-25,-25,-9,-7,-7
-5,-5,2,-3,14,-11,-9,-5
-23,-48,-13,-4,72,-10,3,9
-7,20,27,14,-78,10,2,-11
63,11,39,69,35,14,1,18
-27,-26,-92,-55,-31,-23,-26,-22
-8,2,2,-7,3,-7,4,-1
-5,0,4,-21,-5,-8,-1,3
-9,-6,2,-12,16,-1,-2,2
-7,-8,3,-4,-14,-4,-3,-1
-27,-53,-17,64,50,8,11,-4
26,29,35,67,56,27,18,12
46,-15,-11,-23,7,3,-6,-2
-17,23,-22,-25,-25,-26,-17,-19
-11,3,1,-20,-8,-9,-9,0
-8,-8,2,13,5,13,12,10
-11,-9,5,-20,-25,-9,-12,-10
6,-7,-1,12,48,-3,1,5
-32,-42,-1,-17,-22,-16,-12,-6
25,-5,0,9,79,23,-2,6
6,40,2,9,-19,8,5,-11
11,127,26,-3,-43,-10,-7,-4
2,-66,-11,-17,-22,-8,-3,15
-16,-56,-42,-6,-16,-13,-9,-13
-20,-50,-27,2,12,-2,-1,-9
-26,-10,13,13,24,6,0,-6
20,4,9,-40,60,6,16,17
19,38,10,27,-80,-18,-9,-8
0,-4,-7,40,104,36,11,-4
-5,6,10,18,13,0,0,-7
-6,10,-7,-40,-61,-12,-6,-4
-4,-2,5,-11,23,-8,-6,3
3,0,-8,30,-21,1,-3,1
-9,53,3,-128,-15,-31,-10,1
10,-95,-14,27,-128,-4,20,8
2,-10,54,127,127,48,21,5
4,61,-5,-7,15,-7,-14,-5
-8,-12,-41,-57,-11,-8,-9,5
-6,18,1,-26,0,-13,-12,-17
-6,9,8,-17,-10,-14,-13,-6
-26,2,-28,-9,1,-10,-2,-2
4,-47,54,11,-3,20,9,1
-1,46,0,31,-17,-4,1,-5
25,-21,-23,-20,-15,9,-1,1
-4,-3,-5,6,33,-8,-9,-5
-20,-13,-4,-22,-18,-8,-6,-5
-18,-65,-11,25,18,19,11,-3
33,42,-1,15,21,-3,5,12
-8,55,-10,-1,-30,-8,-9,-10
-20,-55,36,0,19,-1,5,4
2,-32,-14,21,-2,1,-1,-5
9,70,16,-17,5,-6,-8,-1
2,-13,-20,21,36,-5,2,4
-22,-62,-40,-45,-29,-12,-13,-22
12,12,-17,-9,-92,-9,3,6
-2,1,-1,16,47,1,13,4
-4,-10,43,41,30,16,8,2
19,55,44,16,-7,1,9,5
-2,-21,-25,-24,4,-17,-16,-9
-4,9,-23,-23,7,-8,-3,1
-9,-1,5,-5,-56,4,11,3
-2,-59,-9,31,-5,7,5,0
-6,2,-7,-5,14,-2,-7,2
0,14,3,-42,-50,-15,-9,-4
-9,2,3,72,0,3,1,-1
-9,-34,1,-9,28,0,-2,1
3,-28,-5,-10,53,-14,-9,4
-8,22,0,-47,-128,-5,11,-3
-5,61,45,93,126,34,16,3
9,-27,-70,-18,11,5,-3,0
3,-41,41,-57,19,-9,-14,-10
-26,56,15,-2,-25,-8,-11,-14
-17,-1,3,11,-9,-17,-9,-6
14,-31,-4,-25,9,7,12,8
-23,-29,-4,-24,-33,12,-1,-12
51,-6,35,71,67,-1,4,15
-5,33,-53,-35,-30,-7,-24,-20
-22,-6,-24,-46,-24,-10,-2,-7
-8,-34,-1,-28,-4,-2,1,5
-9,16,-6,4,-15,-7,-9,-6
10,0,9,38,-46,-1,3,3
6,12,8,-11,47,7,-1,-1
-5,26,-22,-58,-60,-22,-10,-2
3,19,21,74,73,34,18,4
1,-3,15,47,20,7,-3,-2
0,11,-4,-12,6,-9,-9,-4
-8,-37,-9,-9,1,-15,-9,-11
-18,-39,-12,10,-1,0,-6,4
0,-27,3,-62,-122,-11,-1,8
-6,17,23,-1,23,5,-4,-2
2,-3,-11,-8,-7,-7,-13,-4
6,14,-9,3,-31,-11,3,-4
1,12,4,53,54,13,3,3
18,19,7,5,-27,-3,-2,2
13,-8,-31,-78,-15,5,-2,2
-22,-35,-8,0,33,0,-3,-9
7,2,-28,-38,-35,-10,-5,-5
13,32,-1,-11,7,-25,-15,0
-6,-43,52,37,-56,7,10,-4
-1,-14,-17,-8,-8,-2,-6,-2
-3,41,-8,-3,-8,-13,-10,-5
-12,-5,-20,-8,29,-7,-2,-6
-18,-35,-30,-34,48,-2,-7,-7
-1,39,27,-7,-58,14,20,7
1,16,32,58,12,5,0,-11
2,5,-10,1,-7,-2,-4,-3
-29,-15,-22,-47,12,-1,-2,-1
-4,-47,12,9,7,7,-6,-7
16,42,7,-5,4,-4,-1,4
-21,-63,-46,-7,-17,-23,-13,-6
15,18,-20,-33,-7,7,1,2
-27,-13,3,-5,13,-5,-10,-11
-12,-35,17,26,19,1,5,-3
26,94,17,35,11,12,10,-1
13,-47,-5,21,9,9,9,6
-8,-25,-43,8,23,-8,-13,-16
-15,-4,-13,-54,-25,-9,1,-5
1,-3,4,16,7,0,4,3
-9,-1,7,-22,-37,-12,-4,-8
-6,-7,2,-2,52,13,3,1
-2,6,-4,-17,32,-7,-4,-1
-11,-29,1,64,54,14,10,2
-10,-6,5,18,-21,19,5,-6
50,47,13,40,34,-6,-4,14
-9,-27,-29,-48,-36,-26,-13,-9
-6,11,2,-9,20,2,-8,-1
-25,-31,-1,22,20,7,-4,-6
9,-4,2,-77,-20,-9,5,6
5,20,-12,-19,-59,2,1,-10
-5,-9,-13,16,0,-1,-7,-9
-18,-11,27,-22,-45,-22,-8,-14
-24,40,-11,0,8,17,10,2
50,-26,52,15,0,-2,8,21
-3,-27,-128,-29,-46,-24,-26,-26
-4,7,47,4,45,3,-4,-5
-8,-5,1,-32,15,-4,-3,-1
-3,-3,1,17,-41,-5,4,3
-10,-10,19,45,61,23,9,-2
7,-3,40,9,-23,2,3,6
-2,0,-19,16,9,-8,-1,-12
-2,23,-2,-32,0,-3,6,8
-3,8,-8,-37,-12,-3,-4,0
-8,-9,-7,-7,-89,-24,-10,-2
8,9,2,9,28,4,-1,7
-14,-1,3,21,-22,-14,-6,-7
10,-18,-14,-34,57,0,2,5
10,-47,-9,38,29,30,15,9
-13,36,10,27,0,1,-6,-6
11,62,31,19,1,2,-2,-2
7,-22,-38,-85,3,-6,-12,-6
-5,-15,-12,1,-65,-19,-11,-6
-7,8,-2,66,4,-2,2,2
3,1,-23,-63,-13,16,5,0
-1,2,23,-34,-72,-10,-5,2
-21,-20,16,17,68,5,-4,-4
-27,-52,10,-19,-75,4,11,-3
58,83,36,14,39,3,2,21
10,55,-1,-43,14,-15,-15,-20
-8,17,-15,-15,-34,-14,-14,-15
-12,-16,-9,25,17,-7,-2,-7
-10,-16,-24,2,14,-5,-1,-5
8,1,15,-25,9,24,7,8
-4,-10,5,63,66,4,-1,-5
-26,-18,-10,2,30,-1,-7,-17
-12,-28,3,26,-5,4,9,14
29,76,27,-24,-3,-6,-5,8
-3,-15,-27,-35,-26,-17,-9,-3
6,-1,1,31,7,23,16,7
-8,-15,-10,-14,-46,-7,-4,-7
4,16,4,-2,30,5,3,-2
-6,-5,4,18,31,4,-2,-2
8,13,21,-7,-44,3,1,9
-17,-10,-7,-8,4,-8,-5,-12
-1,-4,-1,4,-5,-5,2,1
-9,-22,1,2,0,5,-3,-2
9,-8,-3,0,1,-7,-11,4
12,18,7,-9,26,-1,-11,-1
8,18,-9,-40,-103,-4,5,10
-31,-20,23,41,37,20,1,-11
-12,6,28,-2,16,8,12,1
55,23,-3,55,74,8,10,11
-11,-25,-62,-68,-70,-25,-26,-23
-9,4,-18,2,-9,-8,-8,-6
-8,0,-6,-26,29,-3,-3,-2
-7,-16,21,3,11,-4,-2,-1
1,-9,37,58,0,8,5,5
1,22,-29,-26,44,23,8,4
-5,-36,-5,-35,-23,-10,11,3
14,-7,28,17,0,12,8,6
-6,46,1,-10,-31,-12,-7,-9
-4,-6,-31,-20,-6,-10,0,-2
-4,-6,5,-14,-7,-8,0,-4
-39,-39,0,57,111,8,3,-7
17,19,-14,-70,-60,-19,-1,14
37,25,3,79,33,27,10,-6
-18,3,-14,17,25,-7,-7,-10
-5,-30,0,-19,5,-6,-7,-5
-17,-26,-20,9,31,-4,-7,-3
-1,-8,15,-3,-5,-1,-2,2
-1,7,-13,-29,-20,-12,-6,-5
-7,4,-14,-61,-42,-8,-4,3
-17,22,19,22,-19,5,3,1
23,24,37,90,69,37,24,12
-14,1,-15,-5,-31,-10,-11,-17
7,-28,-5,-33,-15,-9,-7,15
-9,-8,-39,-13,-4,-10,-7,-4
-9,-8,16,11,24,3,2,1
-15,-31,-8,-12,33,-4,-5,-7
4,-6,18,-2,-92,17,4,7
71,127,48,51,71,14,10,20
-15,-76,-36,-10,-1,-22,-15,-17
-11,-36,6,-13,-44,-16,-11,-7
-11,-13,-35,-10,-13,-6,-3,-2
-4,-11,-5,36,-10,6,5,0
20,58,57,-17,-54,16,11,5
1,24,21,28,72,12,4,3
-15,-6,10,17,25,-1,0,0
-8,11,-18,-23,0,-2,-4,-4
32,20,10,16,7,9,4,7
-4,9,-7,-24,-18,-21,-13,-11
-3,18,-13,-15,-7,-5,-4,-3
-3,-26,-11,-12,7,-2,0,1
1,40,28,-6,-22,3,3,6
-5,13,28,31,-1,2,2,0
8,-42,-32,-21,-12,-6,-10,-6
2,-20,-19,15,3,-6,-6,-6
-10,-11,-16,-14,-7,-5,-4,0
-2,9,3,-10,-12,-4,-2,2
-20,-35,23,10,19,2,1,-1
-7,-2,-4,-13,-10,-7,-6,5
21,33,-8,-37,-34,-5,-4,3
-29,-38,-14,0,-33,-11,-6,-14
-9,0,4,81,69,18,4,-5
2,15,-7,-49,-36,-4,-6,-5
2,42,1,0,-93,-4,-1,-1
0,-6,4,-65,-25,-6,-6,1
-1,-8,-10,-14,-23,-8,-4,0
-4,-20,6,0,6,-2,9,3
-9,-39,5,2,16,5,1,-4
2,49,11,-24,-6,-9,5,0
11,-4,13,66,44,7,0,-2
-6,-11,-26,-23,-17,-16,-10,-6
-14,8,3,-9,-10,15,-2,-7
-10,9,1,3,12,-4,5,5
5,-15,-4,1,-4,-6,9,2
-2,-19,-7,-10,-9,-6,-1,-1
5,12,3,4,11,4,2,5
-18,-12,-14,-5,-17,-3,1,-7
3,-13,10,-20,7,0,-3,0
15,18,-35,-5,11,-12,-5,-6
-6,-20,81,91,-62,2,7,-4
-8,26,-8,-48,10,6,0,-5
10,24,11,17,-13,5,1,10
-10,-79,-25,-12,75,6,-3,-7
-21,-50,-67,12,14,-15,-14,-15
-6,24,71,56,-8,16,7,3
-6,23,-15,-30,25,9,4,4
17,47,28,-21,-13,-5,1,9
-2,-28,-28,-1,9,-3,-4,-3
-4,-16,-11,22,2,-5,-6,-8
-6,-9,6,-24,-6,-4,0,-4
-8,-3,5,-8,31,6,9,6
13,26,21,-2,-62,2,2,5
-5,17,-14,9,-23,-11,1,-10
-9,-27,4,6,1,0,-2,-5
-9,-7,-8,-18,39,1,-6,-4
-4,8,8,5,-70,5,6,-1
51,-37,10,49,31,18,4,11
-16,21,-47,-46,-25,-11,-3,-9
-4,1,3,11,44,-3,-9,-6
-15,-6,-1,-2,0,-3,-4,-3
12,29,18,-20,5,-2,2,6
-1,-27,15,-26,-9,5,4,5
-12,-24,-22,33,4,-5,-2,-4
-9,-5,5,-1,13,2,-2,-2
4,29,11,3,6,-4,-3,1
-3,2,-3,-10,24,10,-4,-5
-5,-31,-14,8,-49,-7,-1,-3
6,10,-4,-6,-21,-6,0,1
8,21,10,1,-20,-4,-1,4
-16,-10,-8,2,7,-4,-5,-8
-16,-43,8,43,67,13,5,1
64,101,41,-7,-9,-1,0,16
-23,-37,-50,-11,-27,-10,-17,-16
-10,-13,-24,-22,-18,-6,-6,-4
-21,-9,7,16,-16,-7,-3,-1
-5,-9,-4,1,-30,-2,4,-4
10,-42,-10,-13,-24,-15,-6,-8
-6,-16,1,10,-23,-2,-2,5
-2,8,-2,-60,14,1,-2,2
-4,0,-21,-47,14,4,-1,-3
-6,-58,-3,35,-29,0,6,-2
12,33,15,21,27,7,1,5
-16,53,-89,-38,-13,-10,-5,-11
-7,-16,117,-20,-7,-9,-8,-7
-5,-25,-4,-4,-42,-2,-2,5
2,-1,0,66,127,49,8,-1
0,-12,-8,23,26,-3,-2,1
0,-20,-14,-17,-6,-2,2,2
-39,-53,-4,6,-8,-2,-1,-3
-14,81,0,0,26,15,-4,-2
102,13,33,0,-12,-18,8,27
-10,-44,-69,-29,-14,-6,-7,-16
-7,9,3,12,-13,-6,-3,-9
-8,3,5,-17,4,8,13,9
-9,-9,-16,-17,9,0,3,4
-15,-17,7,-11,-6,5,5,-2
19,-3,4,-37,-10,-4,-1,4
13,40,10,14,11,3,2,1
-4,-2,19,26,20,6,6,7
-21,-5,-22,13,-11,-8,-10,-12
-3,-10,-17,-36,6,-12,-15,-13
-1,-9,-1,-1,-41,-11,-1,6
-5,-10,7,6,19,12,4,-1
-8,-15,1,5,31,4,-2,0
22,-11,6,-34,-29,-12,-3,5
22,100,28,43,17,25,9,10
0,-24,-14,16,18,5,-14,-13
-8,-32,-18,-9,1,-12,-5,-8
-16,-4,6,-21,-8,-3,0,8
-12,-26,8,-17,-11,-6,-3,-2
-3,-97,-1,3,2,-7,-2,0
11,95,24,-29,3,-14,-11,-4
6,6,16,25,-65,-2,1,5
-7,-15,-15,11,6,7,-3,-14
-2,37,-1,-18,-13,-10,-10,-6
-4,-21,-4,3,-3,-2,-1,1
-9,-12,-1,2,16,1,1,-5
-15,30,18,-7,33,4,1,-3
65,75,50,-14,-53,-2,15,31
-1,-31,-29,22,22,9,-6,-9
-1,5,-28,-46,-35,-2,1,-5
-16,-14,-14,-2,2,-9,-1,-1
-13,-3,-2,-7,-5,1,-2,-5
-5,1,5,8,-20,-2,-1,-2
12,6,9,-1,3,-2,2,7
-47,-128,-12,-11,45,-2,-9,-9
8,55,15,-59,-95,20,0,9
61,127,32,84,105,17,19,4
11,49,-27,8,16,-4,-4,-6
-6,-12,-20,-26,-21,-12,-7,16
-15,-25,0,-10,19,2,-2,-7
-11,-35,0,-14,-27,-8,-4,-4
-3,52,10,6,112,24,9,7
10,-50,20,5,-29,-13,-4,4
-13,-99,-24,26,-128,0,7,-18
26,125,8,-11,55,2,-12,-4
-13,13,-19,-19,-2,-7,-3,6
-14,-18,17,38,5,-6,0,-5
-11,-28,9,-23,-11,-1,-5,-5
4,-33,-15,-67,-5,-11,3,4
20,90,11,-10,-107,-6,3,-3
4,17,-1,85,43,25,6,-12
-11,-29,-39,-17,-27,-12,-10,-9
-3,-17,-3,1,-2,1,-1,-2
-1,-12,6,-7,-10,-8,-1,-1
1,-3,4,-13,-12,-3,2,4
-1,1,8,-8,12,-5,-2,0
-4,-10,-5,-8,-98,-11,-6,-1
0,3,13,32,47,9,-5,1
-5,-2,5,45,-10,-21,-4,-9
1,-34,-16,-26,-14,6,6,0
-17,-15,-3,20,41,8,5,-6
-24,27,-32,-11,-29,-11,-11,-9
38,-11,30,37,47,18,13,20
10,29,11,-22,-23,-16,-8,-5
-13,7,-52,21,43,-10,-11,-10
-8,7,9,-4,-70,-2,3,0
13,12,23,7,7,8,8,2
-8,-53,-20,-4,13,-2,-3,-3
25,47,4,-15,-1,8,0,12
-11,11,-8,12,19,-6,-4,-2
20,51,16,6,1,2,0,11
-13,-86,-17,-38,-3,-7,0,-12
-4,-14,-15,0,2,1,-1,0
27,76,29,11,12,8,4,4
4,-85,-15,0,5,-12,-1,-4
0,15,-34,-20,-16,-14,-7,-2
32,60,14,21,44,13,11,24
2,7,6,-8,-16,5,1,-5
-13,-37,13,-7,-27,-9,-5,0
-15,-88,-22,17,28,-3,-4,-8
4,53,6,11,-10,-7,-6,-6
1,26,-8,-41,-39,-3,-6,-7
-11,-53,-13,-40,-5,2,-3,-5
-6,8,14,-4,-52,-8,0,2
13,42,-20,17,21,-8,6,2
-15,12,3,64,87,24,-1,-14
0,-9,7,-18,-24,-12,-5,-3
-1,-22,5,33,14,1,2,2
3,-4,9,7,52,-7,-8,0
-13,-27,-3,-1,-77,-12,-5,-4
13,-10,-10,-4,60,22,5,6
-21,7,-9,-6,-16,8,-3,-10
-5,-16,20,8,-27,-4,6,5
25,3,8,7,14,-4,-2,-4
-11,18,-54,-72,2,-14,-14,-6
-5,-5,-2,3,-11,-4,-8,-7
-9,14,4,6,11,-10,7,-2
-17,0,-4,4,38,7,6,0
26,-16,-26,5,1,-1,4,9
7,20,39,-15,-9,0,-2,-1
-4,32,8,43,0,-3,-3,-5
-15,-14,-9,16,52,16,8,0
-9,-44,15,-3,1,0,7,10
46,105,7,-11,-16,-8,-1,15
-26,0,-46,-12,-23,-12,-14,-31
-23,-29,-10,-45,-18,-1,-5,-4
-9,-73,10,-5,4,3,10,22
16,45,6,8,7,0,-6,-10
-7,-10,-1,21,14,4,5,-4
-8,-16,-6,-19,-32,-6,-3,-3
-1,-8,-1,-29,-22,-7,-4,-5
-1,12,11,69,25,7,5,1
-11,-16,-10,-58,0,-3,-6,-4
-9,-30,-10,0,-41,1,1,-4
-4,-4,-5,18,6,-1,-2,-1
-4,-17,-2,-9,20,-1,-4,-1
-4,-4,-5,18,6,-1,-2,-1
-4,-17,-2,-9,20,-1,-4,-1
-8,-10,1,-30,-43,-13,-9,-7
3,2,6,4,35,6,-8,-2
