Channel_1,Channel_2,Channel_3,Channel_4,Channel_5,Channel_6,Channel_7,Channel_8
2,-10,-2,4,56,2,-22,32
-5,16,-71,-50,58,6,10,-69
22,52,43,-5,52,71,-16,-41
9,47,127,17,57,18,21,47
-77,-85,-44,-9,9,-20,10,-57
64,5,123,-24,-128,-16,76,85
30,-54,-106,25,-81,5,35,89
7,78,126,15,7,28,-37,7
-20,-10,-98,-10,25,0,8,-11
-37,-64,-7,-127,-30,-17,-45,-70
-17,-18,-62,4,-49,-35,82,-5
-4,-21,-37,94,-128,27,-44,4
-4,-17,-73,25,-128,-43,20,39
-34,-13,28,12,7,28,-28,-34
-9,-1,-19,-49,127,-63,9,8
22,-7,-4,-14,-25,-29,12,-4
-7,2,34,43,-128,53,-3,-13
-3,-31,-108,77,-14,-15,61,8
7,3,-31,20,22,17,-30,36
-27,-55,-61,-109,-128,-26,-67,-45
11,-12,127,20,50,-27,28,33
19,60,28,-15,-128,-7,0,88
11,31,-12,-38,-128,4,58,86
-9,-51,-43,28,62,34,-20,8
19,21,46,1,33,60,15,-6
-24,10,-53,-38,-2,-39,40,-45
-34,-20,-11,18,19,13,-28,-27
-9,-44,-40,-47,-49,-60,-37,-19
47,9,6,-11,127,75,34,33
13,-24,36,69,-128,17,57,-40
-9,-19,-58,-48,109,20,-13,69
-7,25,-59,23,-94,67,-8,-33
-4,19,37,51,-22,61,9,-15
-13,48,127,18,-13,-56,37,-49
-11,-64,-127,-40,-11,-58,-77,-13
28,45,30,20,-128,52,37,80
-3,-43,-36,-42,-98,64,5,5
0,-4,-11,-8,30,-102,-58,33
8,-17,-49,13,25,38,9,57
31,59,17,10,-1,-24,7,-34
36,1,8,-12,2,-10,-5,52
-32,-45,-29,-15,64,44,15,-84
-53,-2,-6,-17,-128,-22,12,-27
-2,-17,62,38,15,-10,-25,-55
4,23,33,-13,36,47,-34,42
-24,29,-18,-31,35,-54,-31,-49
-12,26,13,-59,127,-6,-45,-7
-24,-34,-15,-128,19,-75,-57,-28
23,-77,-25,127,-86,103,121,41
26,12,-25,94,127,52,27,4
57,24,105,51,-10,40,58,-128
-11,41,-1,-23,-2,3,27,83
37,-27,-27,36,66,-85,-98,127
4,-7,-12,-44,-11,-7,-37,-10
-38,-2,-16,-47,-96,-51,-15,-75
-56,-33,9,30,-3,15,-4,-42
101,71,49,76,-2,127,51,54
-7,-12,-33,53,40,-27,16,3
-14,-20,2,-106,-45,29,6,-54
4,-4,-5,17,30,-12,4,18
-40,-15,-10,-77,127,34,-28,-53
-8,9,-9,27,-128,-78,-45,21
-31,-2,-7,6,13,20,34,-12
25,-16,17,95,77,54,36,-11
24,-11,-48,-5,-43,39,0,47
-8,46,-6,-9,-86,50,-8,-40
-18,-6,52,-102,-105,-128,-51,-32
-16,-5,67,18,94,6,-21,50
-13,-32,-91,-74,-128,-1,-11,-4
72,77,127,127,3,91,51,14
21,16,-16,35,127,8,2,38
-31,18,-83,-120,58,-70,-81,-69
-14,-51,-28,22,64,31,-5,-12
-26,-28,40,-95,93,-38,8,-30
-37,-16,8,22,-28,-55,22,50
-11,8,127,8,6,-29,7,-77
59,45,-30,-13,-56,-15,-58,3
-18,-16,4,12,-35,-49,-48,-46
-6,0,-2,-27,-49,-48,85,-69
54,-66,-32,11,-30,-14,59,127
11,-7,-107,7,-36,-16,-31,36
-14,16,88,7,-4,60,56,-20
-12,-7,28,5,-22,-29,29,-49
10,-42,5,28,-33,-23,-10,74
8,42,-17,-44,127,-33,-51,-49
29,34,10,46,-90,53,33,57
-41,-30,-45,28,-119,-8,8,-93
-8,-6,12,-24,-113,-4,15,1
-1,13,-34,-115,127,13,-72,-65
-15,-58,-23,35,-128,-86,119,29
38,81,127,127,119,93,76,108
31,56,37,-99,93,-44,-37,127
34,16,-29,-93,57,-53,-16,-6
-87,-11,-21,5,127,115,-47,-98
-21,-128,-64,84,-128,-128,23,-15
113,111,42,5,114,127,127,62
-10,-8,-38,-76,51,-31,-41,33
-44,-8,66,-44,63,-13,-62,-59
-68,-57,-42,-61,-45,-69,0,-41
-47,-40,-11,-128,127,-65,-17,-100
45,41,39,127,-30,109,110,14
44,38,-19,26,40,7,-12,54
39,30,109,10,63,-45,-3,86
-21,-37,-39,-43,11,-28,-56,-23
-22,-76,-49,12,5,60,-11,-7
-44,25,-23,-17,76,-82,-121,-24
18,0,-28,-25,-128,-36,34,0
81,29,104,68,91,63,24,43
32,48,-128,0,55,-27,-70,35
-38,19,107,35,-71,102,9,-109
-9,-40,-1,-16,65,-70,60,-6
19,-44,-73,-32,1,-10,-4,65
-17,-56,46,32,127,83,30,18
-31,38,-5,11,75,-27,-20,-95
6,-22,-128,-80,-128,-107,42,0
76,82,127,87,127,89,1,90
0,-23,48,-82,-128,-8,59,80
-31,26,-31,0,-6,11,-21,-60
-40,7,-27,-25,-7,-53,-82,-37
-90,-38,-38,-63,127,-21,-106,-111
59,-54,-46,-112,-128,-52,89,-6
54,109,23,127,127,127,66,41
19,-12,21,-6,-5,-84,-76,14
-34,-69,-125,-16,10,59,-44,-8
-42,-3,121,19,78,-79,-31,-70
-49,-16,-11,-60,10,-26,-18,-16
-18,59,24,7,-78,-39,68,-50
77,-89,-84,-36,75,52,52,119
25,41,68,127,-128,27,16,-70
-14,30,-49,0,71,97,-1,32
22,54,75,-27,-4,-75,-21,86
-29,0,21,12,-25,-27,-55,14
-105,-108,-58,-4,-13,12,-56,-128
82,-12,-59,-114,127,-81,-128,117
-4,63,27,127,-102,45,107,-31
-42,-27,55,42,57,127,-41,-34
-4,37,-40,-24,-4,-93,-6,-63
-40,-55,-42,-39,1,-86,-68,-1
17,23,38,19,120,43,17,-88
-2,-53,-12,-86,-77,-43,13,114
58,39,-15,-32,-128,102,74,66
-39,12,-1,33,127,-86,16,-83
45,19,87,40,78,18,-1,63
81,67,78,111,127,101,28,81
-59,-60,11,-66,39,-30,-49,-39
-63,-4,-128,-29,127,89,47,-128
14,-68,-94,-128,-35,-128,-73,127
30,-16,127,127,-128,127,120,54
-25,13,-58,-24,127,52,-39,-10
-65,-48,-62,-14,127,16,-39,-76
-35,17,-59,-52,-19,-91,34,-35
55,60,43,-2,-26,38,16,-39
25,-17,-31,-88,-110,-34,24,64
10,-7,-28,22,15,13,-4,39
-31,-52,-25,-13,-61,-59,-28,-14
27,62,17,31,-110,15,59,39
-7,-1,0,23,-1,23,-23,42
-22,-73,-67,-12,-51,51,-21,0
-35,-31,-97,-56,127,-102,0,-128
-16,51,72,-90,-128,75,-62,11
26,-2,21,127,127,56,90,102
-12,-15,-22,32,-128,-18,2,-23
3,15,-76,43,-67,23,18,-7
-55,-26,-94,-128,91,-7,-63,-48
-57,-77,40,-8,-38,-68,-49,-10
14,22,-17,73,127,77,127,-46
65,41,-75,-103,-119,-46,-51,6
-8,-38,0,118,113,41,21,96
-33,-6,32,3,40,25,5,-9
35,27,7,-92,127,1,36,-62
-65,-4,-128,33,-128,54,-65,-49
43,63,127,69,127,-104,-64,102
66,-71,56,-23,1,-28,127,126
-47,-49,-62,2,-4,28,0,0
-14,54,-26,-44,99,-114,-90,-42
22,17,-33,2,-75,13,47,-22
-3,-46,-31,24,-128,-82,-92,-97
-33,29,2,19,9,5,29,44
22,23,5,-37,-13,11,92,-30
-2,-11,-18,-50,127,-44,-111,-10
3,-58,23,52,-128,-36,9,69
21,43,11,32,54,127,44,2
-4,38,75,62,127,-128,-77,-44
-42,-21,-21,0,127,106,43,-65
-23,-13,30,-92,-128,28,53,-1
-17,-49,-127,-1,-128,102,-24,4
-48,-33,3,42,97,-55,1,-57
71,74,127,30,127,-29,-82,28
-20,-73,-89,-53,127,-49,-40,19
-42,69,-7,17,-4,-5,25,-31
-17,-63,-105,83,127,45,-3,-17
-9,8,127,-36,-42,1,-65,-65
58,21,-90,-68,-43,69,114,37
38,34,8,81,127,40,114,127
23,26,-22,-24,-29,21,-10,-8
-48,-59,-28,4,-73,-79,-101,-16
-42,44,66,-22,-27,-31,-70,-63
-61,-26,6,-7,-70,75,65,-57
22,-17,-2,-16,-23,-72,75,56
51,11,-81,-27,-42,121,74,42
29,29,21,-32,91,-104,-104,99
-69,2,-46,10,-128,-39,-26,-111
-7,-60,2,87,103,4,62,69
43,63,127,1,-25,-14,-42,-46
-23,-4,-7,-45,-22,-49,-63,-83
-30,-62,-128,-81,127,43,2,-47
23,-20,40,83,-128,-21,106,79
-60,7,-42,-128,127,-41,-128,-43
104,114,127,127,127,127,105,127
57,-2,-121,-55,16,59,5,-78
-27,-11,-105,-76,61,-61,12,87
-80,-18,97,-38,51,-75,-72,-68
-46,-35,-59,-128,127,-50,-92,-10
109,-16,-73,127,-128,33,104,70
-30,-78,-38,33,119,8,-7,-53
-41,3,-60,31,58,96,6,-8
34,28,78,1,7,-6,32,3
-28,-49,-76,-80,-29,-18,-60,-43
-8,66,-45,-55,0,-39,49,5
13,-23,32,41,-19,33,25,32
-47,-31,-6,30,-80,-44,-115,-32
-14,-33,-65,32,-128,-32,98,13
33,33,69,50,10,-6,8,81
-4,1,20,-22,54,-72,-53,13
-42,-3,21,-2,-128,34,-101,-109
-49,-63,-66,-20,12,-57,118,-19
79,12,-24,10,-99,-25,55,72
59,64,58,-115,-128,-46,17,59
13,52,-11,127,49,81,127,37
-18,18,-9,-21,-5,-33,-128,-21
-55,-21,-128,-33,7,-68,-120,-80
-73,-54,43,-55,-13,63,75,-55
54,12,22,-64,66,-64,33,56
-18,-35,-128,-32,127,42,-1,-26
18,1,50,127,-105,56,20,94
5,52,47,22,-41,55,54,-12
69,-12,-35,12,77,-61,-22,30
-54,78,35,-117,73,92,12,-36
-75,-15,-18,-2,-22,-12,-83,-128
-7,-3,-38,-128,52,-50,99,89
59,102,8,94,-128,37,-51,127
46,24,81,115,44,-26,33,34
-2,-113,33,38,49,16,21,-1
-71,-24,-20,-15,16,17,-22,-60
-98,-128,-58,-54,52,-56,-87,-128
105,86,-7,20,-25,127,127,105
27,22,-27,-7,-68,-60,-10,49
-49,-17,49,-54,-55,127,-48,-47
-30,3,62,-37,34,-128,-20,-13
-7,0,85,89,127,84,20,-23
-10,-11,-49,50,47,-28,-67,-92
-14,0,8,-42,127,69,-26,-51
10,43,36,50,-128,-34,24,82
7,-22,-34,-103,-63,-46,-76,-50
31,-62,36,69,127,99,27,20
-25,11,-49,-111,-11,-31,-17,-26
9,21,67,127,-62,-10,36,14
-2,30,29,-20,17,47,-22,-6
-88,-55,-74,-128,127,-128,-117,-69
-38,23,-95,96,-8,5,48,-90
69,56,40,37,-128,-64,3,124
70,-10,-43,83,127,76,127,82
97,-7,-106,-63,37,-20,-11,82
-51,-43,3,-59,-128,-86,-65,-48
-113,-48,87,-18,-77,-48,-56,-123
8,8,38,9,-24,110,97,-5
32,101,57,-11,-108,-36,-9,-12
36,0,-38,3,39,19,-24,54
-34,-39,-46,-9,-59,-18,39,-26
-23,6,-36,-26,42,97,-34,18
30,41,55,-23,10,-77,-105,-107
-58,-66,-95,6,-115,127,72,34
26,23,-22,-9,-83,-97,-37,46
-50,16,8,-128,97,126,60,-107
50,-30,-42,127,-128,-9,79,53
57,-15,18,41,127,8,-38,91
-28,-6,-8,3,119,13,-22,-39
-83,-42,67,-71,127,-63,-82,-128
-3,1,24,-128,98,-17,56,8
71,19,72,127,-64,102,55,98
14,30,-38,30,45,110,-20,-69
7,71,127,-15,85,-20,-16,34
-37,14,0,7,22,-2,-102,-30
-68,-61,-48,-55,-29,98,49,-115
-11,22,-55,-128,127,-128,-69,-6
37,-26,-48,127,-128,127,127,95
-5,-30,26,64,127,-9,-17,37
108,127,59,-42,15,39,52,71
-51,11,-38,-66,6,-4,-28,-86
-10,8,21,-8,11,-128,-37,-27
-93,-89,-75,-58,-8,127,18,-65
-3,-52,-20,-39,-58,-48,18,-13
104,61,27,44,10,61,89,127
-15,-26,29,98,77,113,122,6
-23,-6,-15,-43,-8,-69,-128,-49
-66,-49,-70,-49,127,-128,-19,-65
-62,-14,-117,-82,-128,-92,24,8
45,73,114,-42,116,75,106,-20
127,75,-32,127,-128,19,70,127
-6,17,15,-4,127,98,-20,-32
-41,-32,7,-59,-49,-128,-86,-58
-50,-13,-114,-128,13,-89,-65,-47
-24,-74,-6,127,-60,4,45,-20
-3,-24,-40,9,81,25,4,-1
-25,70,127,-41,21,-128,-11,-21
71,120,127,27,8,13,-4,6
9,-24,-106,-43,-45,-45,-50,-30
-46,6,-37,-43,-128,-20,45,-26
14,16,10,55,108,127,-50,93
-82,-109,-80,-27,127,-21,-34,5
-2,-79,-96,-52,-11,-76,24,-80
115,102,-4,79,84,110,78,127
8,61,122,-13,-40,-117,-32,16
-38,3,-2,-15,30,117,127,-33
-89,-92,-8,-3,-84,127,-128,-128
-49,-46,-43,-67,17,-14,50,-106
-16,-17,-43,-55,-64,32,-6,-46
25,64,-128,-128,-128,-77,49,42
98,25,127,127,127,18,-128,127
19,33,-12,-14,127,-5,3,75
-32,-30,-110,-52,66,-31,-1,-4
-51,-46,-70,-63,-1,-15,-33,-80
-111,-47,16,-25,127,-107,58,-104
35,-45,-105,-128,-128,-128,-82,64
76,71,56,127,112,127,107,39
-32,53,25,54,96,-15,-34,-73
7,-59,-111,-28,18,34,8,41
-31,-23,-1,-49,-42,9,-16,-7
-26,10,57,-5,-28,-33,-41,-64
29,-55,-83,-32,64,53,33,39
-61,-3,109,-128,-128,-23,-84,-112
-19,-5,-27,127,-128,-111,40,15
125,-7,-38,73,79,73,74,127
12,4,-56,-44,-6,-36,-38,10
-23,-39,-44,-45,-17,-61,0,21
-71,35,-58,-43,-25,-119,-30,-64
-46,-22,53,9,-93,127,20,-55
102,-20,35,-27,-2,-128,-97,-1
11,52,-9,-62,-128,-9,79,-15
-22,-5,-26,8,-31,127,101,112
-19,-14,-62,0,112,-80,-63,-73
-6,-7,72,40,-4,-49,-28,15
14,-43,32,41,28,38,58,65
3,17,-7,-21,23,-3,-53,2
-61,-75,-100,-47,127,5,-91,-63
-32,9,12,-27,-128,-47,-10,-48
30,-22,12,56,60,-1,120,-45
-27,-76,-60,-9,-2,73,-6,67
-16,14,31,56,-35,-84,-90,-65
112,127,82,77,-69,-54,-20,81
-22,-28,-128,-128,44,-26,39,-43
-49,-39,-81,18,-128,-38,20,0
44,64,127,127,-128,80,109,24
6,36,-85,32,24,14,-41,76
26,9,-97,-35,-7,-9,-78,-40
-72,-67,9,-33,40,98,127,-75
57,-15,-34,-37,-11,-121,-98,127
17,29,-18,-29,81,-28,-36,18
-20,-59,40,-3,-36,88,31,-6
12,28,-3,47,-97,127,8,-24
-51,1,32,-1,64,-99,38,-93
44,30,127,-16,-46,-34,55,90
18,13,4,-8,-46,26,-38,34
22,23,-8,-34,74,-52,20,1
-28,5,4,1,77,-5,127,-58
-54,-94,-99,-15,-128,-3,-17,-25
-11,19,50,69,11,7,-35,14
49,127,87,-25,7,44,69,-22
-6,-22,15,-21,50,15,-48,48
-45,-75,-24,-27,-26,-29,-128,-53
20,29,32,-67,55,1,0,21
9,77,-65,-13,11,-45,-15,29
-20,-92,-94,-77,-128,-69,4,-14
25,13,127,127,127,116,62,43
-28,25,29,18,121,-7,-10,-29
-43,-19,-70,-10,-62,29,-4,-38
48,-33,-89,-53,83,-91,-27,23
-12,21,-18,43,49,18,47,-17
5,-17,42,-41,-57,44,-8,20
-2,-14,-22,-52,83,-101,-38,-14
-9,44,-16,53,-128,124,10,-33
-64,-8,15,-1,40,28,42,-91
19,-54,-122,-35,65,-18,0,96
-14,45,55,-75,52,-35,-55,-1
112,127,127,115,127,-10,127,80
77,27,-3,59,16,7,20,45
-67,-45,-85,-54,11,16,10,-30
-58,-36,-107,-45,-14,-23,10,-39
-24,-21,35,-7,-16,-5,39,-46
-41,9,-3,-46,-8,-44,-9,-101
55,24,-35,-42,-128,-3,57,75
56,5,-72,76,-9,2,-8,33
-1,8,105,4,0,0,-18,16
-16,8,25,-7,9,66,-29,-43
-27,-2,-17,-59,31,-60,-13,-34
-38,-33,-18,-25,-46,6,-35,-49
-74,-23,-48,-102,64,-22,-40,-59
8,-14,-5,127,127,127,127,-10
69,19,95,122,37,-76,-30,83
72,-23,17,23,68,-9,-52,-11
-32,23,-33,-56,-2,-99,-121,-17
-86,-50,-29,-6,3,113,127,-128
44,-18,-53,-64,83,-128,-6,117
33,22,0,-50,0,-28,-112,51
-44,12,-48,-47,-128,53,19,-89
28,-10,-19,70,-81,36,99,63
-16,-16,2,13,21,-11,-14,-2
-61,4,122,5,16,3,-30,-8
38,37,-51,-23,93,47,32,54
71,82,67,-8,-28,39,9,-33
-10,-21,-54,47,-128,-128,-113,3
-16,-28,35,36,-33,38,-4,15
-20,27,121,45,127,45,13,-42
-45,-36,-78,-47,36,17,60,-49
13,11,37,-4,-56,14,-37,26
-9,-18,-67,-44,-55,-60,-56,26
-31,-34,-56,-37,127,22,-68,-72
-61,-20,36,-40,18,63,-44,-4
39,52,43,46,-106,-68,43,43
87,46,-6,44,-30,80,70,30
18,-7,-3,-32,49,47,-21,92
-14,-22,-7,-61,-13,-4,-8,-32
-30,-3,-53,57,-48,1,38,-28
-11,28,30,43,32,39,34,8
-15,-16,-102,-33,77,18,-128,11
-22,3,86,-53,-128,-74,-4,-33
-72,-126,-86,-82,127,-66,-25,-40
73,73,127,127,23,107,46,6
67,86,15,5,67,42,11,98
-55,-66,-93,-102,65,40,-20,-64
-28,15,-15,53,-51,9,39,5
23,-34,91,0,-32,4,-9,71
9,28,55,7,23,-17,-29,-1
-21,-23,-46,-17,15,127,127,-19
-77,76,-21,28,70,-128,-1,-56
59,-43,63,74,63,127,59,59
41,-17,-29,27,-54,32,46,61
-21,-7,-54,-84,45,6,-39,-65
-72,-58,-12,-40,110,-12,-58,-94
64,49,22,88,20,101,127,121
39,54,10,4,12,-16,-48,38
-24,17,-25,5,53,2,-13,-25
7,3,-34,-20,92,-37,-25,25
-32,-107,-63,-56,-128,-108,-13,-62
-26,-16,19,-57,-13,15,28,-38
58,87,36,127,127,127,-15,55
0,-13,-104,-28,101,6,-43,35
-43,-68,-17,-128,127,-115,-79,-58
57,34,-128,127,-128,127,125,72
21,62,20,49,-49,34,57,15
9,53,127,42,17,-31,-17,-40
-31,-58,-30,-52,64,13,-52,3
-91,-74,-125,-128,127,-128,-58,-97
127,72,72,127,127,127,127,127
19,36,119,41,-91,9,7,59
-24,-22,-33,-5,35,8,-38,-53
-62,-64,-84,-47,-10,-11,-64,-2
9,42,-15,-18,16,-33,-13,-11
-53,-75,-33,-67,-75,10,46,-32
127,97,-12,31,-91,74,16,47
-17,-14,-57,0,-31,-51,-12,-28
-89,-58,1,-54,-12,-7,14,-17
53,-46,1,-6,-128,-13,-14,25
17,16,30,0,-39,8,102,52
-25,17,-22,-36,21,-13,-25,-8
-40,25,-11,-75,33,28,-34,-77
14,0,-56,85,-77,28,-24,5
7,-23,127,64,27,27,11,75
-7,54,52,-18,70,-3,88,-30
-32,-67,-31,10,6,41,-33,18
-41,-62,8,-30,96,-106,-31,-45
-8,16,-48,-76,-128,-95,-63,-55
-19,-69,-62,68,127,127,96,0
59,70,127,64,-128,-54,59,40
68,75,13,27,3,-56,-43,109
-8,-6,2,-32,104,47,13,22
-34,6,11,7,-34,-26,-31,-55
-30,-14,-128,-113,94,90,-1,-40
-20,-82,95,61,-106,-93,-8,-28
-24,34,-20,-72,127,-3,-26,2
10,29,91,62,-128,127,71,-91
54,27,-33,83,127,32,32,65
52,-14,-43,25,9,48,17,70
-5,-12,55,-25,51,-1,-75,17
-69,-23,41,-61,-24,22,127,-69
1,-45,11,37,102,-120,-128,-14
58,0,-67,-39,-128,27,72,47
35,-19,23,6,102,-8,-76,62
-39,25,-4,-14,26,0,-43,-50
-96,-59,-24,-47,127,-74,-67,-128
96,28,66,99,-128,127,84,51
33,36,10,8,2,-35,17,118
-12,35,92,-12,3,54,8,-12
-13,0,-93,-17,36,-8,5,-45
-44,-28,49,-21,27,46,-33,-21
-78,67,-128,-35,-121,-35,127,-92
6,-92,-45,-54,127,29,-53,9
127,15,127,127,16,88,2,122
-8,25,-76,-2,-3,-24,-22,-6
-45,-63,-67,-60,3,33,-25,-31
6,-48,-52,-3,38,-57,-4,24
-46,37,12,-35,-26,11,-15,-94
-59,-17,9,-6,-4,14,9,-30
79,17,14,12,-5,22,33,7
4,29,-10,-4,-88,105,-27,-4
36,-4,37,33,41,-109,14,50
-40,-28,49,-6,-29,-25,-20,-50
-52,-73,-92,-34,52,-93,-6,-30
-11,42,-3,-30,-128,-28,-55,-22
43,84,76,35,-5,18,37,41
-9,10,-25,29,-20,8,0,-27
-18,-105,-87,-30,26,9,-2,-5
-12,-23,-23,-15,-11,-14,-46,-32
-27,5,41,14,-34,21,79,-51
21,21,67,23,16,-19,-15,126
75,71,50,22,76,-32,-33,16
-40,-60,-72,-111,-128,-128,-77,-70
-55,-74,-59,86,127,49,98,-82
-9,33,34,-128,-7,-34,-14,3
112,106,127,114,-128,-14,-76,127
-67,-14,-3,127,32,15,-11,-8
-8,2,-40,-62,107,37,-15,39
44,23,-66,-120,-13,-128,-30,-46
25,44,114,4,-33,-13,30,3
-43,-56,-90,18,61,17,-30,-62
-72,-58,-102,-128,-128,-128,-8,-65
5,-38,71,127,127,98,57,24
-16,-54,-44,-77,-2,-24,-22,-2
25,44,112,-40,11,-17,-31,-3
-2,25,-23,-42,-24,-16,-7,-23
-15,51,-41,-10,-38,11,-6,-26
-95,-96,-76,-48,127,-60,-128,-128
25,-13,-20,8,-128,118,127,127
100,81,37,83,125,-77,44,120
-2,-18,-8,-16,-1,-56,-87,-77
-16,-16,-17,-5,5,16,-12,6
-50,-23,-5,-1,24,1,-20,-28
-47,-25,-14,-28,-25,-12,-26,-55
49,13,9,3,-33,9,25,8
-55,5,35,4,3,38,-7,-113
120,63,56,41,-103,-38,-128,127
40,-30,-104,2,-56,-43,14,85
-37,19,-34,-51,49,11,35,-44
-48,-73,-112,-96,-128,-84,-61,-49
46,33,127,127,127,103,42,35
-51,23,-18,31,125,3,28,-11
-20,11,8,-78,127,-22,-14,-47
60,51,-30,4,-124,5,12,94
-26,-102,-57,30,-20,-35,-42,0
-11,-36,-18,-23,-23,8,42,5
-33,31,23,-33,126,32,-61,-67
-61,-21,-7,-96,-128,-128,-5,-32
63,-32,32,127,127,127,119,30
26,6,24,-35,12,-61,-94,11
-25,-16,-52,-28,46,-18,-28,-27
-17,15,23,-30,8,-9,-25,-29
-40,-52,-1,-20,17,-35,-11,-9
-45,-51,-84,-54,127,-6,-67,-65
33,50,125,63,-86,-69,127,47
32,56,15,81,116,33,-65,43
9,57,102,12,28,45,37,22
-1,6,-36,-2,-11,-28,-59,44
-59,-20,0,-22,-19,91,-47,-128
-97,-51,-26,-50,118,-25,-20,-128
127,125,62,-62,-10,-114,98,127
-16,18,-124,127,127,127,50,-11
-107,-73,43,-4,-12,-122,-36,-108
3,-97,16,8,103,103,33,-73
70,48,-95,-33,2,-6,20,47
-23,69,127,-27,-28,-15,-93,-28
-41,-26,10,-28,47,-32,-35,-18
3,-32,-75,3,-128,-10,111,33
36,54,-5,44,127,1,-41,31
-29,-7,-17,-54,-128,-83,-33,-53
-60,-40,-57,19,125,55,79,-33
83,127,127,31,-104,11,15,78
26,-85,15,38,47,14,4,26
-25,-44,-44,-48,47,-25,-38,-36
-19,-50,-65,-65,-44,41,-48,-9
32,-30,-25,-65,-64,-108,13,86
4,28,-79,127,127,127,25,14
-50,14,83,14,35,23,13,-18
-32,-39,32,-39,9,-91,-63,-63
4,-9,-35,-2,28,9,40,-45
41,8,-31,-23,-34,-19,-20,127
8,46,28,32,2,82,-8,-60
-48,-14,-36,-36,-26,-17,-8,-15
39,9,49,-73,-15,72,-17,62
-74,-51,-53,-68,71,23,-47,-128
111,52,98,127,-128,-128,101,127
44,0,-42,7,-42,-42,-45,115
-27,-14,-52,-33,14,115,-67,-40
8,80,33,-6,49,-59,-15,-1
-73,-38,15,-11,-58,84,127,-116
-125,-72,-128,-128,31,-55,-1,-121
127,116,105,113,-128,-12,-36,127
38,40,31,127,127,54,23,58
-39,27,-73,-56,27,-2,-20,-5
-67,-25,73,-47,127,-11,-2,-92
-35,-17,120,50,-44,28,21,-58
7,43,-45,-19,-8,-11,-18,20
31,-4,83,-2,47,13,-26,18
-26,-50,-89,-77,-128,1,9,-30
15,65,33,60,127,71,61,-25
-22,-45,-39,9,-128,-20,-28,-20
-19,-8,13,49,127,22,27,-25
18,-32,-112,-42,125,-44,-15,-3
21,-3,13,22,-128,-51,-38,63
-40,69,127,1,116,66,-14,-75
32,36,-93,-9,-44,-124,20,87
38,-5,98,-9,31,-12,-22,10
-17,17,-45,-27,46,-1,85,-32
-2,-44,-16,-33,-128,-24,-22,67
-4,4,-26,72,127,53,2,-49
-59,-125,-15,9,-53,-13,14,-25
17,-15,7,2,80,77,-14,-7
26,52,1,-7,-21,-54,-35,33
-72,-40,-125,-22,-42,-28,-44,-57
-18,21,67,-92,127,-98,-52,-80
115,98,11,52,-128,31,127,127
49,-43,-19,30,127,51,35,58
-5,16,44,23,40,25,-9,-1
-63,8,-2,-28,-8,68,-66,-75
-60,-77,-128,-30,-40,-41,-25,-46
7,9,84,1,55,-9,26,-52
-2,-9,-108,-52,-21,-12,1,40
54,-8,-54,56,-71,2,-44,19
-58,-16,104,-44,-98,-33,-16,-33
23,50,-42,71,-128,69,103,1
-1,-15,-86,-24,47,-49,-60,-12
-62,-89,-23,-54,127,-12,-63,-34
5,11,-8,44,-128,127,127,-38
116,127,127,83,70,-99,33,122
-18,-54,-102,-52,-2,-63,-71,17
-27,1,19,-54,19,-31,-54,-50
1,-9,-18,7,-5,1,-6,-17
13,28,68,-28,15,-3,-4,28
-17,23,-48,-27,-31,-57,29,-21
-7,-22,3,57,2,-36,-12,-31
-46,-77,-16,-10,23,91,127,-35
2,48,49,-5,-23,-73,-8,19
50,-6,-73,10,1,-6,-40,108
-20,-47,28,-17,18,10,-51,-54
1,-22,13,-10,15,-51,42,3
-49,2,-12,-37,106,-12,14,-43
1,45,-5,21,-77,8,-32,-77
125,60,24,14,69,28,-3,98
-8,9,20,97,-14,127,116,-2
-2,-23,-40,1,18,-80,-73,50
-96,17,-121,-53,51,-25,-25,-106
34,43,127,-5,-67,15,40,46
52,-19,-92,7,7,-12,-36,22
25,19,36,6,93,5,-9,53
-9,60,8,-43,-128,-12,34,-57
12,3,-74,-52,101,0,87,66
-14,21,42,-27,-128,-66,-73,-6
-20,-75,-21,127,127,112,-17,-7
-35,-32,-80,-2,120,-1,0,-79
-18,-7,-8,-33,65,-50,-33,-21
-16,35,-37,-84,-9,-48,-85,4
4,-24,-51,33,73,71,56,18
-6,32,127,71,-36,24,39,-23
43,3,-37,-22,-17,-2,29,26
-11,-14,25,-12,-13,-4,-32,-8
-5,11,-32,-12,-6,-60,-68,-45
-15,-13,-1,-43,-77,-46,-22,41
-41,-47,-37,71,125,100,5,-7
-27,-48,-15,15,77,-22,-24,-45
104,89,83,-5,56,28,52,69
-24,-9,-5,-30,-26,-30,-77,-30
-9,-39,65,-22,-128,1,32,-77
47,98,51,20,12,-11,28,16
4,-15,-19,-8,84,36,16,94
1,-57,-1,-1,51,-22,-2,66
-40,-30,-91,-15,9,104,17,-30
-19,32,-54,-40,-113,-128,-53,-52
33,6,127,88,-52,83,35,19
17,-45,-128,21,41,28,3,3
16,25,81,-31,127,-20,-39,6
-62,-47,47,-56,-128,1,56,29
3,-61,8,69,127,-16,53,-87
49,37,-25,55,71,31,3,37
17,-3,-57,-15,11,38,-46,63
-16,3,79,-12,-6,23,-45,-13
-39,-105,-99,-52,15,-67,11,-25
-5,89,67,-42,127,3,37,-22
63,77,50,77,-128,10,55,-24
8,34,4,52,82,22,-4,88
-26,-51,-106,-26,41,11,-7,-3
-30,-29,5,-29,7,-26,-1,-34
-40,-39,-21,-14,19,-15,-24,-91
11,-19,-11,2,-39,39,-2,36
28,25,54,-6,40,-52,1,21
-82,-19,-2,-20,-23,-29,-64,-92
8,-11,-36,76,41,19,80,72
127,24,26,42,123,70,53,127
26,-12,-39,-42,-12,10,-31,22
-43,-22,10,-29,-7,57,1,-37
-26,45,32,51,53,-88,-12,-111
-41,-14,12,-91,-128,-58,-98,-8
55,-43,12,68,3,118,127,119
17,53,4,60,6,19,21,-10
49,100,2,-15,9,39,57,28
-37,-46,-35,-3,30,23,13,-50
-16,-9,12,-16,-46,-28,-114,-85
-16,-37,-33,-44,39,-79,-34,88
1,-30,30,-26,127,9,-55,-21
35,5,-67,48,-128,-42,114,20
22,58,127,55,-73,14,34,3
-19,35,-4,32,-24,-23,-35,-78
-20,-20,-42,-10,127,52,36,23
-18,13,-94,-53,-5,13,-48,-16
-12,36,65,15,44,-10,-13,38
17,-82,-47,-33,35,-32,-10,2
-22,11,-1,-109,127,-85,-110,-55
-1,-9,-107,54,-128,77,112,15
26,-23,98,93,102,102,46,37
-19,3,23,-3,74,-49,51,-60
-8,38,-13,-61,20,-32,-55,-7
-34,-13,-46,-36,15,11,-69,-38
-52,-66,-9,-47,75,127,-80,-78
66,-26,-36,-53,-76,-128,76,91
53,60,-5,113,65,11,36,-20
-68,-54,-30,-25,-1,58,4,-24
11,81,37,-21,12,-21,-8,-45
2,-49,-7,-3,-19,-52,-59,7
11,-26,-13,1,-37,10,14,59
49,53,-45,-22,-16,-24,26,9
-44,-87,21,1,-20,25,-6,-25
-4,10,13,27,-10,-36,-20,51
-47,-10,-19,-9,-35,87,3,-40
87,48,70,14,24,-5,75,84
1,-51,18,-12,-17,-11,-56,-32
-37,-35,-61,-24,31,-5,-16,-65
-1,1,14,-5,24,-28,-30,-30
8,26,89,81,54,81,22,31
7,-23,-91,35,33,-22,36,25
-11,-3,-6,-30,-16,-16,-55,-21
-10,18,32,-31,32,13,-1,-28
-6,-2,-26,21,-67,-52,-6,0
1,-17,2,-2,44,35,-2,-3
-13,10,104,-80,-128,-76,-36,-27
7,1,-105,70,-128,59,71,18
-2,-31,2,40,127,25,5,0
3,64,76,19,27,2,-13,-17
-29,-66,-128,-91,-38,4,-43,-73
-29,-27,47,37,-65,-1,13,-1
-43,-5,15,-4,36,-64,-49,19
70,9,-55,-24,16,-17,-61,51
50,58,-13,25,-37,15,-37,-7
-38,64,127,-30,93,-14,-24,-39
-22,-101,25,33,-128,-17,-27,13
-36,-36,-36,32,48,-110,59,-99
13,47,-72,39,127,127,69,72
67,-5,-10,-54,-39,-31,-23,-4
62,18,4,30,-111,-22,-26,107
-29,-65,-57,-16,-44,19,1,-33
-76,-27,-41,-95,51,-54,-13,-128
-20,16,-30,-128,-109,-109,-63,72
79,55,43,127,99,127,-13,61
-25,31,19,22,127,30,13,-15
36,4,-52,15,-128,-68,23,35
-23,-35,2,-28,-24,8,-1,-20
-27,-14,15,2,7,0,-3,-39
-42,-2,-37,-67,33,-19,-35,-45
2,-25,-30,-28,77,-31,-51,-69
21,49,89,27,-50,81,89,44
-33,-79,-75,14,127,-14,-24,10
-10,10,-38,31,-45,49,-5,-27
0,57,100,96,26,-90,104,-42
21,0,-41,-10,41,-5,-5,64
0,-21,-27,-65,127,-62,-128,-7
-58,-58,-45,-71,-128,-119,28,-28
36,64,-23,-11,14,48,120,41
14,-11,-79,21,127,50,4,-8
-47,-94,3,-72,24,5,-93,-99
-46,15,19,17,127,-66,24,13
117,33,21,91,50,64,80,105
-26,38,-33,-35,20,-8,-51,-33
-90,-23,33,-10,39,25,-74,-48
53,43,23,12,91,-12,119,-128
81,12,-37,2,-58,-42,1,127
13,-10,-62,16,4,26,-38,40
-21,62,127,-39,5,-10,-37,-38
-54,-85,-43,14,-16,1,-64,-63
-39,-46,11,20,32,-46,-20,-60
-11,22,2,-61,-99,-21,53,13
10,-26,-98,-9,127,-15,-74,-19
-21,-45,-45,-21,-128,16,127,-7
90,15,28,127,-4,17,6,98
-25,-5,-44,-14,74,-7,-78,-18
-49,-67,-128,-56,32,65,-1,-47
11,-23,35,21,30,-55,51,39
-21,12,36,-17,22,-7,-24,46
17,36,72,-9,7,0,-21,-7
17,3,-53,-34,-48,-8,35,-21
-21,-1,37,-39,82,-37,-40,-30
22,30,-52,94,14,127,53,66
-4,-9,12,33,23,-11,-36,-7
-61,5,42,-31,127,-90,-1,-59
-11,-26,55,-115,-128,-86,-40,-82
9,-57,-53,45,127,127,52,36
6,-2,-52,127,-128,64,127,81
120,100,80,86,-10,-24,-42,102
37,27,-16,-42,52,16,-37,53
-68,-36,1,-91,127,-49,-99,-82
-61,-31,22,-73,-128,16,26,-76
3,-35,-33,15,-128,-126,52,16
-9,-45,17,73,127,36,-60,-16
-53,-11,-82,22,118,-56,-32,-44
62,75,31,-34,16,25,-22,13
-8,53,30,11,-20,-34,39,-28
-10,-15,-33,-20,-18,32,40,73
-51,-35,89,-48,-72,-62,-128,-70
-2,-20,-128,-10,67,23,98,13
92,5,58,71,-38,49,110,54
-7,35,0,24,-10,59,-44,-65
3,46,127,17,-37,-4,-83,41
-24,9,-27,-51,-27,-14,-32,19
-101,-102,-55,-77,111,60,-48,-113
2,21,3,-72,-1,-18,58,-15
127,70,-43,127,53,127,112,127
43,-5,63,7,116,-7,-43,67
-22,20,-36,-21,72,18,-20,-51
-43,-35,-17,-66,37,-53,-31,-84
-56,-49,-43,-21,-68,-29,-54,-45
-24,11,49,-26,94,5,-14,-40
73,46,36,6,127,12,7,45
34,7,-128,35,-128,0,53,39
27,10,127,121,124,127,74,50
-21,0,9,44,15,-4,3,-37
-29,-55,-60,-70,-13,-37,-78,-14
-97,-52,-128,-128,127,-128,-128,-111
6,33,127,127,-128,127,127,55
123,88,-64,-9,127,127,78,69
-12,53,-47,-100,95,-38,-28,-2
-51,-21,-18,-101,23,27,-73,-50
-33,-70,-20,-58,74,-35,12,-55
81,9,-59,-9,-24,-74,-77,83
-33,-51,44,-1,-47,-55,16,27
-36,-32,-76,6,-40,-42,-44,-15
-20,43,31,-2,-76,-64,-26,-17
45,-20,15,24,113,-16,26,-40
39,49,30,37,-86,-29,115,127
-63,15,15,-4,-49,1,48,-38
35,-2,-54,-12,67,-74,-90,-26
-31,-52,-57,-94,-128,-28,-14,-77
69,86,127,127,127,106,68,74
41,11,102,32,50,52,23,98
-21,19,-128,-21,-24,50,-78,-22
-45,-42,18,-27,76,32,4,-35
-36,23,-5,6,69,1,56,-30
-3,-84,-110,-54,32,-16,-56,-38
21,64,65,50,26,-20,-47,30
-1,14,-48,-77,59,-12,-6,-77
41,27,127,101,127,127,35,84
11,-16,-38,5,-65,116,16,52
-26,40,16,90,29,-128,-30,-38
-31,-5,30,2,98,-34,16,-63
42,48,28,-83,-86,-48,37,69
5,5,-24,-41,127,23,-87,-56
45,-10,-95,47,-128,-33,124,56
-13,2,69,73,127,69,-28,38
-40,-4,-69,-116,83,-34,-85,-39
-74,-93,-128,-115,109,-72,17,-117
65,113,127,114,48,3,38,-13
45,23,34,103,-128,-99,-128,121
26,56,-80,-24,25,-31,-42,23
-50,26,-38,-51,-4,20,-38,-75
-20,-27,-71,16,3,33,127,15
2,-41,11,-29,90,-8,-85,-18
36,30,3,15,-128,54,-16,-93
42,-45,-85,-16,-68,-65,66,127
14,8,-36,66,44,15,-3,30
-128,-91,-128,-39,27,36,50,-128
21,19,-30,-112,-32,-19,-26,41
127,78,127,127,127,119,48,127
47,5,-86,-10,-117,-1,37,57
-31,-17,10,3,-11,66,18,-17
-52,-22,-93,-14,-29,-99,5,-65
-61,-44,-57,-118,13,-56,-74,-53
-37,-75,-87,-16,-112,-77,-36,-25
12,-8,127,24,-128,63,53,-103
-32,26,-81,-77,127,-43,-91,-46
37,51,106,77,104,45,33,31
53,1,-38,91,-128,-16,71,56
-25,-60,-107,-4,33,2,7,59
-33,-42,-4,-66,-2,9,18,-40
-12,55,39,-41,127,-84,-122,-46
-72,39,93,-64,-128,3,127,-128
87,-32,-40,58,127,65,-25,127
92,-19,-51,127,-128,19,45,73
-8,5,-18,-2,86,8,-15,-62
-29,-3,58,-17,48,-28,-64,-49
-55,-52,-41,-119,-98,-4,59,-25
-73,-33,2,25,47,34,19,-80
31,87,-72,-36,-99,127,-42,16
52,15,127,52,127,-128,-46,62
29,10,96,-20,-84,14,58,20
8,28,-43,-35,14,22,7,55
-45,-84,72,19,-12,-80,-76,-68
-10,-67,-128,-4,-24,25,-44,-35
-61,-12,127,-1,-32,81,82,-13
52,111,28,-13,-57,-4,49,-87
104,113,105,65,-31,-10,-1,127
35,27,-12,3,-72,-128,-128,109
-61,-70,-48,-41,41,67,38,-128
16,-50,-102,-89,127,6,-29,-58
68,-2,-25,-88,-128,-128,-28,127
-29,-45,-32,127,15,66,52,-104
-18,9,127,-107,127,-10,-27,-17
-16,14,127,-68,78,-42,-55,-22
-47,-105,-128,-105,127,-2,-28,-70
-14,47,80,38,-128,-15,1,-2
-10,21,3,86,127,66,35,-7
-36,-62,-92,-128,127,-56,-128,-75
18,-19,-1,-51,-128,-62,49,92
66,93,127,127,127,61,60,40
-13,56,115,-24,127,47,-7,-17
-19,-41,-128,-36,35,-5,-38,-14
-56,-46,13,-49,15,-42,-24,-86
-2,24,-4,-27,-47,-28,-15,39
-37,-40,15,-12,-57,-1,81,-89
-51,-41,-91,-14,-51,54,51,-32
117,34,9,34,15,-128,-128,127
-11,-24,-49,-1,-51,-64,-45,-5
-1,4,2,35,32,42,-37,39
-70,27,-23,-3,-35,127,127,-96
12,-65,-101,-10,-2,-89,32,38
17,3,-12,14,23,-32,-83,24
-11,29,-30,-39,-128,-67,-101,-17
-12,11,68,58,-61,-37,1,8
19,-45,127,77,45,74,39,9
-15,0,105,-43,123,19,25,-61
-14,41,37,-6,-70,39,-14,-40
-31,-58,-128,-128,-128,-92,-90,-6
-35,-11,-37,-33,127,127,28,-53
-2,18,50,127,22,-17,127,50
97,53,-30,-10,-78,-5,-17,78
-16,10,9,-101,94,-2,-53,-5
-81,-119,-9,-52,-13,-41,-56,-52
-2,-6,-37,24,69,61,-14,-40
-36,27,-86,-122,127,109,107,-100
-16,-40,62,107,-29,-32,35,71
63,118,127,127,-65,-26,-63,19
101,39,47,122,-7,46,9,116
-57,-32,-128,-107,15,-8,-37,-68
-60,-75,-95,-62,45,14,-7,-74
18,-12,-27,-20,-2,-15,-2,98
4,-8,-17,-1,-1,6,22,22
-35,-1,-46,0,3,50,51,-106
-1,-6,31,-6,-38,8,-16,0
12,-21,63,-16,-72,-60,-13,86
-15,42,-76,-10,-44,44,-12,-29
2,-33,51,-19,-8,-61,1,-12
-12,-5,26,23,-90,-13,-13,-43
-76,-29,-94,-46,127,95,127,-107
-80,-128,-128,-128,-128,-66,-92,-95
127,127,127,127,127,108,11,119
3,22,-128,-101,83,-3,-21,-61
-26,-58,-128,-79,29,-18,-11,10
-38,-45,-43,-51,19,2,-49,-48
-59,-58,-38,-123,127,-31,-71,-110
3,-72,-1,37,-128,-8,127,103
12,5,-23,26,127,17,-2,0
-43,127,-128,-128,127,-116,-26,-98
53,59,127,127,124,123,22,59
90,-45,81,74,127,67,127,127
-84,-59,-20,-54,-26,-52,-102,-22
71,77,-54,-67,16,41,70,75
9,22,-34,-13,-29,-111,-78,-12
-26,28,118,25,-63,-128,54,-37
-33,-24,-55,-74,-118,-19,-8,-35
-59,-21,-23,34,-11,36,78,-108
52,21,84,80,7,75,56,65
49,50,-16,4,8,-18,-8,7
-10,-1,-47,-47,-29,-23,-46,-31
-45,-46,1,-19,127,38,55,-48
12,-2,127,27,-128,-34,-4,52
-3,-21,-86,-12,-114,26,19,28
-47,-8,28,12,127,10,38,-45
24,22,55,-128,7,-68,-51,13
73,17,-98,127,51,108,51,63
-6,-10,52,16,-77,2,-21,5
-21,16,117,46,127,43,35,-6
-19,-2,-100,-54,29,-37,-32,-36
-43,-26,-77,-36,-35,-74,-73,-86
-29,-5,75,-15,-23,36,87,-7
-80,-71,-61,-92,127,58,-80,-47
-4,-24,8,93,-128,-85,109,-55
64,16,-127,-80,-128,22,3,57
127,120,55,127,127,21,-69,80
6,21,82,-47,-30,-26,-71,76
-33,-1,-5,29,14,39,40,-103
-48,-54,-45,-81,47,-81,-46,-96
-47,-83,-113,-88,-39,-103,-46,16
-12,8,-74,-35,-46,-51,6,-65
2,-2,127,44,-60,10,53,24
42,8,86,45,-5,-6,17,54
-6,-21,-63,-9,-12,17,12,9
-7,52,11,20,-6,-48,-73,-5
-54,-19,-71,-84,89,-10,47,-128
-51,-74,-31,-33,-128,-41,-34,-28
41,-68,-51,-51,127,-35,-5,60
68,114,127,127,-128,70,106,64
18,80,-3,72,45,5,-33,25
-74,-24,-89,-62,42,-21,-86,-55
-66,-123,-84,-126,127,-11,10,-75
127,45,36,94,-128,33,48,62
-2,-5,127,-20,24,-82,-67,38
-86,-56,-118,-128,127,-58,-100,-118
93,73,58,127,-19,123,127,127
2,24,28,-28,77,4,-11,29
-26,-38,-47,-43,27,31,-58,-47
-52,-63,-10,-45,74,-128,-44,-70
-65,4,-31,-52,45,-28,61,-94
-10,30,-24,-103,127,-84,-128,-59
51,-41,-94,28,-128,54,127,54
124,70,27,73,127,89,-21,127
-18,57,64,40,40,-42,-125,-61
-65,-117,-36,9,24,-14,41,-78
-54,15,-23,-52,-62,-7,17,-87
6,-52,-8,16,35,-7,-15,-75
-66,-12,-74,-128,-42,86,24,46
43,-24,94,127,-128,-65,48,-2
127,106,95,127,73,121,126,127
-3,2,-69,-24,25,0,-20,2
-26,-21,-55,-24,-19,30,-5,-2
-50,-14,-18,1,-21,67,-32,-49
-62,-80,-16,-82,81,-78,-91,-55
-32,-50,-128,-128,-119,-103,-55,-83
33,95,127,127,-128,-69,101,66
43,72,79,58,127,45,-14,122
-11,-10,-128,-125,50,-17,-72,-20
-21,-31,-68,-67,48,-37,-28,-31
-51,-34,-22,-24,7,-12,-54,-63
-15,-37,-111,-109,85,40,60,-38
39,64,94,-104,127,-104,-81,70
46,-40,51,127,-128,78,117,35
-16,-25,6,27,43,35,26,34
-48,-14,39,21,53,-11,-42,-52
-57,-25,-8,-47,65,-1,-32,-84
23,10,1,21,3,127,13,52
40,36,-25,7,71,30,30,39
-29,-19,-24,-16,-116,-51,-28,-56
-20,33,106,18,-17,11,49,-16
-35,-56,-104,17,-27,-40,65,2
79,104,127,18,-60,-5,-128,116
13,64,11,-7,-33,54,127,-9
-48,-94,-75,4,-13,-16,-120,-40
-76,43,74,-67,50,32,-45,-128
-25,-57,-7,-116,-128,-90,87,-49
123,-128,63,127,127,100,25,127
9,34,-58,-12,-77,-36,-46,-10
-8,28,25,-38,41,43,33,-47
-82,-19,-38,-40,-37,33,18,-119
27,-15,-128,-67,84,-87,-114,54
-7,-9,3,-128,-128,-121,-24,45
5,-14,8,127,127,127,127,-22
21,64,72,46,120,2,-13,50
5,50,127,0,47,-11,-99,-43
-36,-27,-10,-61,22,-20,-18,-14
-17,0,-41,10,-122,-7,-6,-24
-28,-26,-102,-48,127,35,-61,-60
-9,-3,48,-52,-128,-84,68,37
41,-5,-56,127,127,45,99,40
1,-60,-1,-12,42,-47,-17,35
-69,17,52,-18,-6,-53,-67,-84
-59,9,-3,-12,0,-68,-82,-69
78,13,-36,-99,83,127,100,-3
55,-63,75,64,-82,-31,14,72
-70,17,44,19,-82,-50,22,-2
-65,35,22,-34,31,127,48,-74
127,50,-65,11,-108,-128,-128,88
24,5,-36,1,-53,30,-24,79
-27,76,44,-58,2,107,77,-72
-29,-42,-66,-36,-58,-128,-29,-15
-68,-46,-35,-45,126,-4,17,-128
-37,-60,-36,20,-128,8,6,56
10,71,73,14,-5,-32,-66,127
65,-72,-82,38,-20,127,55,-38
15,-25,127,-23,127,-76,-27,38
-19,50,-28,-80,-93,-76,-45,-27
-20,1,-76,-62,-87,-4,70,-10
-34,-30,31,127,102,115,47,-53
-12,-3,-23,13,35,-47,-30,-15
-17,47,28,-26,127,-3,-57,-34
-14,-51,-5,-72,127,71,-20,-21
-29,-38,-90,-19,102,-1,56,-12
37,26,-65,26,-128,-23,56,16
49,37,97,75,-46,-20,-46,69
-26,-20,49,41,23,-16,-50,-27
-5,-47,-117,-58,4,-44,-50,-40
8,14,-6,-55,61,30,3,-35
25,-7,67,-97,100,4,-40,37
-1,68,105,57,-15,-47,52,22
11,-44,-105,91,-107,56,127,7
-45,9,0,-12,7,29,-57,-47
-18,-80,-73,-54,15,-31,127,-9
73,-9,97,0,-60,-100,-128,78
23,69,-56,-18,-69,-107,-51,-43
-27,-26,-32,9,2,-22,14,-12
-65,-54,-20,-14,-51,26,36,-38
-31,-29,-27,9,-18,36,54,-12
1,51,42,21,4,31,-76,-105
-39,-30,-78,-52,70,5,-24,-78
123,-9,86,55,-128,0,110,127
39,66,84,18,-90,-15,-21,23
-25,-15,-47,6,112,-5,6,-25
-26,8,-1,63,122,56,-21,-57
-85,-46,-128,-103,24,-83,-123,-78
-16,-24,127,-46,-128,1,127,-62
80,71,31,127,36,99,49,44
50,-20,-88,-57,113,-51,-128,83
-29,-27,-87,-63,32,-6,42,-8
-57,4,2,-32,24,25,-2,-66
-3,-12,-69,-30,46,-44,-81,-2
-48,-105,34,9,-6,-35,-56,20
-28,-23,-128,-52,-78,-16,0,-50
35,53,127,124,127,116,69,-58
47,35,-60,-31,17,41,69,119
-19,-86,42,4,64,-83,-13,-12
-55,-83,-95,-4,26,12,28,-34
31,127,127,6,-76,17,4,27
-5,26,-73,-64,58,48,48,-51
-77,-103,53,10,-128,12,-77,-51
37,0,102,105,127,28,93,-29
72,44,15,-21,18,63,1,127
14,10,-74,-22,-48,-40,-101,37
10,-1,-44,27,-34,16,48,5
-11,19,42,-117,127,18,76,-24
-53,-65,-106,-38,-128,16,-42,-47
-30,-70,-15,9,96,52,-27,-48
-27,-24,-128,-111,-28,-15,44,-62
0,98,127,127,127,127,29,-32
-20,-38,-56,9,-128,-128,-128,48
67,21,-60,-8,127,46,26,44
-27,-34,20,-27,-36,21,-23,-37
-90,-61,-26,-33,9,-23,-115,-84
82,50,-29,-77,123,-18,113,90
31,36,-118,-111,-128,-80,-15,27
-38,-68,-41,127,16,51,37,-11
-29,-58,127,121,127,60,-34,-106
11,-39,23,-21,29,25,26,8
71,70,-41,25,-19,-81,-128,7
-37,-58,-128,-73,-16,30,-17,50
-41,8,127,-128,127,-106,-98,-98
71,29,104,127,127,127,127,24
69,27,-28,19,60,0,-52,70
1,-32,-36,-6,67,-45,-105,35
-12,43,-9,-46,28,10,-37,-23
-56,-55,-82,-35,-4,23,-60,-59
-71,-69,-108,-77,7,-9,15,-37
7,75,127,65,-105,-4,10,-71
47,-52,13,20,-76,31,127,-18
24,-11,-54,-1,-55,-37,-107,127
1,-10,-123,-37,-95,66,-128,-40
-16,64,51,4,-39,-128,-29,-59
-12,-3,28,-6,-5,38,14,-83
-86,-107,51,-9,-7,-128,-98,-54
-11,-56,-128,-68,-34,-7,30,9
26,-9,8,61,-128,47,127,-5
55,75,127,17,127,39,-57,6
31,31,-22,-14,-128,-17,18,80
-13,-12,-43,64,127,37,20,94
-39,-8,-43,-26,-59,127,-1,-29
-55,-28,-14,-48,127,-59,-85,-64
-54,-123,-117,-128,-128,-128,4,-76
85,127,127,127,-128,127,127,71
35,-38,19,101,127,18,-24,59
-25,-81,-15,-23,12,-20,-82,-35
-35,5,-28,-58,18,26,-7,-48
5,-24,-24,-55,20,-31,-44,32
-43,-28,-10,-27,24,-85,-76,-38
-25,-49,-60,-17,-90,-4,85,-4
59,61,11,28,-56,-3,-14,-9
45,60,90,-12,-39,12,3,77
4,37,63,17,-6,-92,-11,10
-42,-49,-128,-45,-23,-46,76,-6
-28,-39,25,-10,-94,32,-60,-24
3,25,52,67,-26,30,35,-40
-31,69,-4,-44,35,11,-23,-61
1,-103,-128,-64,-19,48,-10,26
64,25,50,35,70,14,90,127
15,-24,93,47,-40,0,-8,55
-25,11,10,8,-2,-7,-44,-27
-83,-58,-35,-20,127,-15,-120,-113
-100,-53,-112,-128,-100,-128,105,-128
127,94,94,127,-128,127,127,127
67,41,37,127,55,73,-19,127
-30,-54,-39,-6,75,7,-45,-14
-75,-45,9,-25,67,8,-16,-75
-72,-22,38,-62,127,94,-101,-72
-20,60,-123,-128,-128,-90,51,-35
120,97,127,127,127,80,94,31
38,-67,-86,-48,74,-33,-33,115
-15,0,-128,-77,30,-2,-17,-7
-40,-54,27,6,42,-17,-3,-36
-19,-25,13,-40,99,-42,-1,-5
-4,-42,-43,-3,73,95,30,-29
-4,25,106,27,19,-69,-19,-3
-7,28,-86,-55,54,-64,-69,16
8,9,34,111,-31,55,69,26
38,15,108,110,-64,69,114,56
-57,-72,-59,-59,17,2,13,-85
8,27,-8,-37,-1,-25,-20,53
-30,-18,-104,-15,14,38,-29,-95
17,45,98,-15,-56,-85,-76,18
10,-3,-16,-4,-35,38,26,31
-29,-56,-118,4,-13,-26,78,-13
-1,21,74,-23,-70,-27,43,16
14,-66,37,-55,44,-25,-37,-33
52,108,84,53,-128,-3,-3,-29
31,20,-71,12,58,-19,38,71
-55,-31,-8,-28,64,-1,-36,-12
18,-39,-6,0,-128,-40,72,18
48,46,14,35,51,96,71,17
5,34,56,4,-128,-50,-118,-9
-27,8,17,29,5,24,-31,-36
-41,-40,-56,-50,20,-23,-23,-79
-18,-8,-21,-81,70,-32,29,19
1,-57,-11,-106,67,-35,-14,28
15,33,127,124,-128,32,39,21
-26,6,-89,-52,119,-46,-54,-17
-22,-59,-128,54,116,80,22,-34
-23,35,116,66,127,127,78,-100
17,28,45,63,9,-46,19,75
31,-19,-60,-7,-7,-53,-59,61
-11,-28,2,-29,7,-8,-36,-3
-53,-9,-28,-33,30,-13,-66,-68
-52,16,-89,-128,127,29,127,-80
127,92,127,127,35,127,127,127
19,-33,57,127,72,44,-18,-33
1,6,65,-12,75,-2,13,35
-41,-23,-117,-30,6,72,61,-76
-55,-20,50,-56,10,-33,-8,34
103,-19,-50,31,20,4,74,127
23,25,-9,-10,-25,8,-2,-83
-40,-7,-62,-15,-35,-6,-79,27
-118,-78,6,6,-12,36,-98,-128
72,56,127,12,17,-1,102,87
37,87,-84,-21,-6,-51,-21,7
-18,-93,-50,-33,-44,-17,10,-32
15,-20,-82,-9,-69,-18,-27,-2
-36,-40,-31,15,96,7,-26,-25
-62,10,127,-128,29,-55,-72,-71
1,-26,-82,36,127,114,78,-31
73,74,7,127,72,66,122,127
50,58,127,81,-22,1,-20,48
-43,-27,-78,-70,-25,-77,-108,-72
-74,-60,-98,-128,127,18,-42,-45
42,-9,-70,-27,-114,-26,46,-15
-18,-64,-106,-40,127,8,-34,13
44,40,127,-19,-128,-108,39,106
-1,-10,-47,72,127,73,2,-42
-26,3,-42,-3,-26,21,-27,-10
-33,-47,-29,-8,27,67,-8,-30
7,-17,9,-31,3,-128,-90,-11
16,-42,-125,-29,24,58,54,24
-25,38,114,-74,127,-57,28,-19
-55,20,105,127,24,71,48,-128
127,13,6,-19,19,-3,12,127
50,40,-37,-36,6,-73,-107,16
-17,-3,13,-14,12,-1,-15,-68
-18,-25,-8,5,15,4,-2,-48
-97,-51,-29,4,-18,95,-61,-61
-52,-75,-33,0,10,-89,28,-79
27,-43,-70,-4,127,-12,72,-63
106,127,75,15,-85,-21,44,127
7,48,51,37,-43,8,-7,7
-29,-52,-91,1,-30,29,-15,-63
-20,-7,-3,-55,30,0,-45,22
-2,-25,67,-89,127,7,50,-4
9,6,-71,65,-128,-6,47,17
-4,-12,-7,119,-13,109,3,43
-14,-70,-8,-18,108,19,-58,-4
-68,-28,-12,-40,111,-109,-28,-51
26,70,-2,-12,-128,-31,-20,-32
33,15,127,-10,78,-1,36,83
-4,-49,-53,-15,20,-1,-2,13
-60,-74,-8,-37,52,18,-32,-110
34,48,21,-106,89,-41,36,71
-5,-4,48,127,-128,100,48,17
65,-9,-51,98,90,26,56,66
11,60,32,-36,68,-10,-10,21
-29,-12,5,-35,87,16,-62,-30
-44,-13,15,-50,15,-51,3,-88
-8,-11,-30,32,-32,37,37,-3
-23,-3,-34,3,-71,-90,-128,-5
-49,13,0,5,-7,-3,-46,-119
33,16,11,-5,-58,43,88,101
107,47,48,2,-16,-6,25,127
-57,-39,-63,5,-31,53,-8,-60
-104,-33,61,8,50,-128,90,-69
80,55,1,-128,127,-59,-101,79
45,-20,-81,44,-128,-26,75,-32
127,127,127,127,-116,125,117,121
8,4,-71,-11,95,-13,-35,25
-54,-22,5,-37,41,21,40,-57
-47,-43,-34,-53,37,0,-48,-46
-54,-46,-120,-90,127,-57,-117,-57
9,47,20,111,-34,61,62,37
9,9,127,-34,9,30,-23,-5
-12,-9,-70,-1,-108,-82,-8,-27
-7,-11,1,0,127,-16,13,-16
5,-18,39,67,-16,65,46,39
-2,4,-8,34,-32,-9,-23,-28
-1,-27,-23,3,16,-5,-31,22
-94,-30,-29,-26,79,53,-128,-128
-128,-128,-71,-104,127,-39,127,-102
127,127,64,30,-128,-43,-55,127
122,53,73,80,16,3,-76,127
-32,-104,-75,15,42,51,-35,8
-71,-18,-60,-44,28,45,-41,-97
-93,-81,12,-55,18,-122,13,-97
-26,27,21,33,5,21,11,-27
67,84,-29,-26,-2,-2,27,64
-55,-69,-14,-6,-71,31,-28,-48
-26,-41,-80,-98,54,-51,-23,-13
73,118,127,127,127,79,102,45
23,33,-66,22,-19,20,-2,44
25,27,17,36,13,-24,-27,25
-12,-12,-54,-128,127,-18,-5,9
-68,-70,-38,18,-128,58,26,-64
16,29,60,1,-128,14,26,-19
33,-5,14,56,44,2,35,89
-5,-29,-7,40,-128,3,35,-17
-28,-29,-55,-24,127,22,-123,-55
-26,-65,-74,-69,-100,-45,14,-13
-21,57,-5,-6,62,12,61,-37
29,7,28,65,71,52,-76,-4
10,-2,1,-128,-102,-128,-45,99
62,116,127,127,-128,48,59,96
-53,-58,-32,-35,22,-3,-22,-43
-32,-13,3,-21,16,2,19,-28
-29,-65,-64,-49,10,-8,-116,-88
0,-70,-97,-98,76,-51,36,-29
5,58,127,43,10,-40,11,62
77,110,49,101,120,86,44,71
-19,-9,-42,-31,6,-43,-88,-50
-24,-56,-87,-3,6,0,-12,-14
-25,-29,5,24,-12,30,28,-16
-35,-10,-37,-67,55,-21,-62,-41
23,-32,-26,-84,103,-40,21,37
31,-19,-14,80,-128,-3,70,9
19,75,91,96,127,81,104,47
-19,22,0,-25,34,19,-97,-24
-6,-1,-29,0,19,-64,37,-30
2,-28,-17,-80,87,-83,-18,63
12,-31,-18,-24,-128,-5,-19,-44
36,-15,38,118,16,-12,73,127
-43,9,42,6,127,49,28,-100
-11,-26,-3,-44,-62,78,22,-81
1,92,-11,-20,-46,-33,-128,47
36,-14,-17,-20,-59,-75,-82,51
-5,-69,-62,-25,-23,2,11,-15
-53,-35,-57,-32,-41,-6,-6,-48
-59,-29,26,-38,68,17,-114,-78
52,97,-63,97,75,127,127,86
16,8,20,68,-18,-46,-62,-16
4,-7,15,20,22,2,-84,3
-8,31,24,-128,-27,-70,11,-47
-20,-6,-26,-67,102,-35,8,83
-14,-51,27,24,-128,4,14,13
3,15,-13,4,109,33,57,-106
31,53,7,51,-17,97,30,107
-13,-58,-65,1,41,-57,-26,2
-18,-35,-26,-71,25,-33,16,-73
20,34,23,-4,-128,39,63,-17
-14,-4,12,30,-128,-114,-102,43
-45,-11,-40,-93,-13,-30,57,-10
38,-6,-3,-125,116,-63,-83,50
40,24,127,127,-128,95,76,73
3,-2,-44,24,101,34,0,-24
-22,-9,-75,-55,97,0,11,-66
-15,66,-29,-128,127,-13,21,7
-53,-83,-14,-106,-128,-128,-128,-69
13,-17,-62,127,-128,27,127,42
30,7,61,16,-44,44,34,42
-22,2,94,-43,5,21,-30,-66
-37,-57,-48,-47,74,-106,-7,-20
10,48,-18,-25,5,9,-49,-41
-3,104,-35,-23,-23,-65,-4,-29
33,-17,46,-8,-60,8,103,127
0,-91,-74,10,-46,-55,-103,-17
-27,7,26,14,-35,75,17,9
70,36,70,-10,-27,-13,36,-32
19,11,65,12,-49,72,82,64
53,108,83,-11,114,-43,-6,64
-41,-48,-89,11,-128,-5,23,-54
-50,-33,18,67,-100,37,60,-112
59,-2,-2,-25,-128,-18,-13,127
6,54,78,68,66,14,-90,-44
-18,1,36,86,127,82,127,24
-4,0,9,-78,101,-49,-107,-6
-21,-68,-60,-66,-53,-36,-7,-21
-23,28,-2,62,-128,49,32,-25
-21,-39,-36,-128,127,-75,-60,-7
43,15,18,127,-128,127,113,28
8,-24,16,32,127,41,29,32
-22,-15,-35,-49,55,-8,14,-21
21,27,7,-86,127,2,-61,-38
-38,43,32,44,-128,-56,32,-12
-12,-11,37,52,100,-2,-28,11
-14,-119,-128,-128,127,-46,-63,-5
-10,-43,2,31,-128,0,119,14
44,127,68,85,127,15,-28,-32
-19,-66,-36,-19,21,21,-82,-8
7,61,49,-20,-11,-31,-8,51
-60,-51,-128,-29,16,-128,-93,-55
-58,-64,-65,-71,3,30,122,-87
111,84,127,94,-85,-7,74,127
61,110,83,34,17,-40,11,30
-58,-118,-76,-56,-27,21,-11,-38
-90,-23,15,-29,19,-16,-89,-128
-22,-42,-60,-64,-99,20,42,-47
102,59,-9,5,82,-58,1,127
33,106,112,64,-5,42,30,32
-17,18,-17,97,82,103,-40,-30
-21,-45,102,-79,90,-72,-74,-35
-37,-55,-23,-27,-128,9,84,-10
12,3,9,127,127,78,43,14
-33,3,24,-13,-37,-6,-40,-55
-54,-47,-48,-128,127,-46,-100,-88
59,25,9,35,-128,-24,127,84
50,23,-30,127,127,65,36,65
-18,-33,-11,0,-1,-12,-34,5
-30,-20,-5,-40,33,-18,10,4
5,127,127,-67,32,79,-84,-62
-41,-5,-26,4,51,-128,27,-27
7,-104,-78,-128,121,-91,-71,-58
23,46,23,-32,98,30,110,-11
26,-77,-23,94,-128,-47,105,38
70,41,-26,91,127,51,-86,106
-11,67,1,-59,21,51,-5,38
-19,-10,10,-51,43,-64,-76,-42
-54,-18,-24,-13,20,-22,-57,-50
-57,-47,-45,-35,-15,109,125,-64
74,-15,35,6,-4,-43,52,-25
64,20,-40,-2,-80,-128,-128,127
-63,-41,-110,-46,-101,45,18,-41
-29,5,127,4,-20,-51,-6,-47
33,118,53,70,-47,19,4,-17
-9,-46,-55,21,-14,19,31,-8
-26,-39,-43,-75,-26,4,10,-40
-3,-17,-34,-70,127,-27,-77,-17
-8,37,108,25,-128,-29,95,-15
-11,-45,-91,-14,105,-45,-33,1
16,-31,28,70,-128,52,77,87
-20,21,38,81,-98,43,21,-27
-33,-37,-65,10,77,56,-33,-40
15,14,0,-74,64,-88,-70,9
-52,-50,-93,-65,89,-27,-15,-89
-35,-15,39,-123,127,-79,19,-70
87,115,80,127,-95,71,127,74
18,-1,43,79,-7,-21,-128,91
1,18,-11,-15,-13,51,-6,-30
-34,12,-5,-41,11,-65,0,2
-25,-32,12,-28,-12,-10,-10,-51
-40,-27,-128,-35,-55,80,7,-52
-53,-84,1,-51,36,-50,77,-82
58,110,71,95,-11,127,106,70
63,7,-24,-18,-128,26,-89,-22
29,1,-60,-28,-57,-128,-93,47
-51,-31,-48,1,62,-33,-35,19
-39,-8,-8,-13,-32,-8,17,-36
-6,-49,-46,-15,-89,-7,-4,-27
-36,-14,-35,-53,127,1,-50,-33
-35,30,2,-83,-128,-108,-17,-56
33,17,69,127,127,127,125,8
9,6,45,-6,45,19,12,59
-6,3,-25,-50,46,4,-19,6
-13,-35,-38,-30,69,-5,-32,-14
-37,-22,-51,-117,105,-73,-61,-39
-4,-42,-55,-128,127,-46,-52,5
59,72,34,127,-128,127,127,56
20,10,30,33,127,42,46,-20
-28,-9,17,-21,64,-29,-87,-66
-34,-128,-111,-126,35,70,-118,31
-35,71,41,-5,52,-128,1,-3
70,102,41,-12,-36,-50,-6,54
91,52,101,-52,-71,-40,28,13
-31,-102,-95,49,3,80,84,-8
-18,54,73,55,-16,46,-97,-33
-13,-105,-77,-12,-65,-23,19,79
-26,3,-37,-34,-116,-80,-9,-70
12,-15,-59,10,-40,-21,48,-1
8,-17,8,25,-14,73,24,22
-37,-19,35,8,1,60,17,-61
-8,32,-45,-32,75,-59,-70,-3
42,29,45,3,-128,7,64,77
20,-18,-26,44,26,44,15,8
-12,-9,18,27,64,-15,-34,-47
-3,49,3,15,-8,36,-10,37
-30,10,-10,-128,104,-86,-104,-70
-38,-24,-102,51,17,51,49,-23
61,46,119,127,-38,70,89,10
-21,1,48,-19,43,-18,-54,-2
-79,-117,-11,-113,127,-43,-13,-76
-17,-43,-58,-48,-128,-128,-32,26
92,78,0,98,58,64,22,37
11,-9,38,-16,18,-11,-46,0
-43,28,-36,-29,63,-13,-25,-30
-64,1,-20,-128,111,-62,-37,-32
61,-88,-65,-11,-128,-28,86,77
62,15,13,127,127,127,99,24
-6,91,127,3,37,24,-31,-16
-53,-40,-62,-62,-28,56,-49,-38
17,9,9,-17,66,-60,6,21
-23,-21,11,-28,-18,-44,-60,-10
-7,64,-34,14,-5,-3,-26,5
-51,-66,-88,-56,-62,-60,53,-119
25,-2,69,14,-74,0,47,49
46,-20,-64,-28,-41,50,-72,71
24,73,127,80,22,-52,-19,13
-11,-24,3,10,-35,12,23,4
-11,-30,-34,-3,-10,9,21,-9
-55,44,43,-23,86,30,-40,-40
-9,-7,-92,-86,5,-38,127,5
85,-54,65,127,-128,127,41,35
36,86,55,28,-7,-128,-2,127
5,55,-55,-8,93,-4,-19,-5
-14,-28,12,-35,28,-3,-64,-22
-42,-35,-86,-36,48,2,-22,-46
-28,-22,-10,-57,-30,-16,-5,-46
-17,1,16,20,-20,-2,8,-18
-48,-35,-1,19,13,2,-27,-40
-4,-13,-1,-128,127,16,-63,-28
30,-8,-36,127,-128,-14,127,44
39,92,97,59,127,40,19,43
-13,-3,-10,-50,70,0,-23,20
-52,-48,-27,-45,29,-27,-35,-33
-59,-13,-114,-49,53,31,-7,-92
7,-2,66,-70,-35,-37,-15,-12
77,-9,-4,34,-111,-53,-70,70
-55,57,98,18,-128,-32,-40,-43
13,11,127,44,113,86,-15,-17
49,36,-37,-26,-128,-78,52,51
29,19,9,48,-35,28,47,59
8,11,2,-5,-20,24,39,37
-44,-64,-37,-24,-8,-30,-20,-60
-85,-59,-122,-104,29,-57,-68,-60
78,41,-40,41,124,84,38,15
7,5,64,107,-128,-46,28,49
55,40,72,49,127,36,45,42
15,8,-2,-19,81,21,7,-17
-9,-31,-41,-29,10,-12,-74,7
-28,-25,6,-7,7,-67,-94,-34
-54,6,-87,-118,127,60,-101,-46
-6,-7,14,-16,-128,-128,127,-1
85,22,39,127,127,109,58,39
-10,48,96,-25,44,-2,-63,-31
-21,21,-112,-54,57,38,-28,-61
-41,-66,-32,-53,40,-22,4,51
3,-50,-46,-5,-2,-23,-38,1
46,31,2,-45,1,-15,1,0
-36,-18,-62,-49,50,78,64,-27
-14,11,-12,-3,-92,-15,-62,-36
37,-9,-77,28,-112,-49,33,26
63,54,81,127,99,124,115,52
12,-9,61,10,83,-5,-55,6
-22,16,-88,-7,48,-5,2,24
-30,-63,-63,-46,32,8,-19,-50
-1,18,-40,-14,-11,-26,-116,-25
-26,-17,-22,-85,8,-15,36,-31
-41,-44,-19,-24,-107,-57,-16,2
52,58,59,127,-128,22,73,6
30,48,50,-10,16,14,14,76
-2,-11,-51,-32,-29,37,-25,-27
-25,-45,-32,-14,19,-70,-14,24
-27,-5,14,-1,6,20,-43,-16
-12,8,72,-37,28,-44,-85,-118
-5,-26,-50,-41,-1,6,-6,18
-5,-57,-33,6,-128,-73,57,105
72,124,127,89,13,24,-16,20
-4,15,-52,-10,63,26,1,20
-7,-13,-4,-39,12,22,31,-44
-31,-42,-59,-9,-8,-50,-85,-44
-128,-51,-75,-75,127,-23,-128,-128
64,35,-16,-128,-128,-128,127,-42
119,-47,-48,102,-128,35,39,127
51,3,3,125,127,22,-70,112
119,-47,-48,102,-128,35,39,127
51,3,3,125,127,22,-70,112
-9,12,64,-28,79,7,-15,27
-42,-34,-17,-74,37,-22,-37,-59
