Channel_1,Channel_2,Channel_3,Channel_4,Channel_5,Channel_6,Channel_7,Channel_8
-32,-48,-128,-102,127,-46,-61,-40
-16,4,78,-99,-128,29,127,-120
61,16,-73,68,127,24,-70,127
-65,-7,-44,-45,-8,-16,15,-128
-40,-56,2,-2,54,3,98,127
127,67,-20,-8,-57,-28,-128,124
-11,-15,-9,-10,12,14,-13,26
-26,15,1,0,-3,12,15,-63
-54,-13,8,-1,-35,-1,-6,-74
-59,-17,-9,-32,-40,-4,28,-75
38,-22,-21,58,93,-9,-45,-18
68,46,82,14,-107,7,65,127
-32,-6,-18,-9,58,23,21,-88
-11,-11,2,-101,-128,-72,-33,-13
47,14,-101,-16,55,-24,33,127
-28,-18,-13,-118,-123,-66,-88,-101
9,5,-48,-25,-6,-13,-5,38
-32,4,-15,-14,-27,8,22,-42
-85,-49,-15,-26,-64,-15,24,-104
45,25,-33,7,38,46,12,44
-44,-42,-34,-37,-59,2,-90,-99
-10,5,0,-59,-128,-74,63,12
10,-26,14,-72,8,-13,-57,4
36,88,127,76,-128,-21,7,8
-76,-50,-50,-76,-71,27,13,-97
25,-13,-97,-32,54,-30,66,31
55,51,116,75,-128,-38,-128,74
-16,-10,4,-20,88,11,-23,-68
-16,-1,-32,-128,-128,-36,12,4
-48,-11,100,-64,24,-26,49,-85
-79,-35,-61,-51,-10,7,43,-128
-2,-32,-35,-59,127,-23,-128,-30
10,23,1,127,-128,4,71,110
55,54,127,18,127,11,15,-82
-2,-28,-25,-33,15,44,7,127
-35,-25,-34,-26,43,2,34,-128
55,12,-23,-25,-9,0,-18,127
50,27,-16,3,28,8,-25,127
15,-1,-77,1,-24,-27,19,31
-32,-14,-42,-14,48,43,10,-33
-54,-32,-38,-57,-115,-69,-51,-95
-52,-32,-80,-128,90,-17,-17,-96
54,17,-2,127,-128,106,89,-56
71,46,127,20,11,11,4,127
-21,-28,-25,-50,-28,-34,-38,-25
-23,-11,-43,-74,-10,-25,-23,-55
-7,-25,-26,18,-35,-19,17,-4
-27,21,11,-11,34,-12,9,-64
74,-10,-55,-2,85,20,-128,40
-5,-10,111,31,-111,5,109,80
36,46,12,46,67,17,-63,13
-6,-43,-60,-51,56,8,68,8
-7,-15,-106,-51,58,-32,-55,-76
-5,-1,50,-9,-128,-4,86,-66
33,33,62,62,127,73,-10,62
-26,-19,-97,-80,101,-34,-35,66
-16,-22,-112,-64,-128,-46,-12,-39
-23,-16,127,-86,-128,-48,10,-66
-20,-7,1,2,34,-15,28,-4
9,35,-74,5,127,2,-17,-17
5,-45,-81,-65,40,-33,-60,32
1,1,-28,-20,-23,13,11,28
15,62,93,-21,31,15,14,-107
-38,-51,-82,-8,-56,-47,15,53
-90,-55,-81,-124,-128,-7,71,-128
104,45,20,127,127,65,40,118
109,47,-7,-11,-35,34,-87,127
-8,-41,-8,-20,20,-72,-10,10
-34,-6,64,-9,-16,-19,-9,-65
-23,8,6,-10,-12,7,21,-61
-33,-21,-8,-27,-66,9,30,-7
-40,2,8,30,-83,6,-37,-128
94,42,35,-43,127,21,24,82
-30,-41,-52,-75,-128,-86,-8,52
43,64,117,127,127,127,21,11
-5,-19,-38,-32,-91,16,-34,32
-17,-27,15,-15,108,-23,-31,-48
-72,-19,39,-72,-128,-27,-6,-55
69,46,91,20,-128,-50,52,37
36,0,62,95,127,56,58,44
-3,-10,-23,-9,-116,-98,-87,69
-42,-34,-20,-13,12,-11,8,-62
6,2,23,-52,15,30,-14,35
-17,-4,-61,-23,102,-43,53,5
-12,0,53,118,127,42,-86,32
-23,-28,-6,36,-128,7,60,-79
28,12,-77,-9,18,75,117,41
25,22,75,-13,-4,-67,-95,82
5,10,37,-2,-25,-29,-25,-64
-2,-10,-56,4,4,15,33,-4
-32,-24,-60,-20,-36,-6,-18,23
-56,-49,-15,-14,96,-29,-37,-22
39,2,32,-59,-128,16,44,-60
52,22,-34,-15,-63,5,12,127
-23,-9,-12,77,127,62,29,-66
-27,2,5,29,8,-67,10,-79
-3,-15,12,-44,-69,66,12,-37
29,-4,15,-26,7,-35,-70,127
-38,4,-8,-128,-128,-116,-6,-83
10,-18,-11,86,127,18,28,21
-16,-11,-79,-5,2,13,-6,-25
-9,-4,78,-16,-35,-31,0,14
24,22,74,-46,127,-8,-12,-6
16,-11,-15,77,12,13,25,3
33,-1,-44,32,127,67,87,103
-15,5,-20,-25,-91,-3,23,16
-54,1,66,-128,-57,1,-103,-68
42,19,-22,68,127,-49,-126,-70
-29,-50,-86,-47,27,11,126,-55
46,26,11,-14,-21,-22,-72,127
-31,3,-64,-21,-86,-27,7,-23
-51,-40,-90,-128,127,-105,-91,-81
24,6,22,127,60,115,74,15
33,14,47,32,48,67,25,-107
-1,0,50,-34,-3,24,74,107
-12,-3,-33,-16,-4,-99,5,9
33,-7,-40,-24,111,19,43,80
20,4,10,-15,-63,21,-8,57
-2,5,-6,48,25,-21,-41,80
-33,-18,-45,-87,-128,-2,47,-100
7,-38,-8,70,127,27,8,42
-25,11,113,53,127,10,5,-128
1,14,-9,-36,-117,-30,24,127
16,1,-28,30,41,19,-88,21
-22,-15,-11,-28,-12,7,1,-57
-6,-9,33,-128,127,-37,38,10
17,-8,-12,107,-128,11,-42,88
11,15,8,99,127,50,58,-27
41,34,5,-34,-45,6,16,63
-17,-21,-8,-41,-23,-6,-5,11
-63,-9,-27,-29,25,10,0,-59
-47,-13,-86,-71,-124,-23,-32,-128
58,-5,61,62,127,-11,-20,127
2,-20,5,-31,-82,-53,-24,-22
10,-14,-28,23,-128,-31,5,11
-8,-3,-28,17,-9,7,3,5
-26,-31,-14,-23,-109,-8,-17,-71
-57,-11,36,-4,-35,-32,-41,-37
-10,-17,-33,-7,-20,-19,19,-61
23,-3,-58,-69,127,21,57,127
29,-5,31,27,-128,-8,-28,-4
56,58,71,76,92,6,-106,24
-4,-4,-6,34,-1,-33,-44,13
-44,-13,44,-14,16,0,-19,-43
-83,-22,-99,-55,13,-9,22,-128
84,75,73,38,21,17,52,74
27,0,84,3,98,6,-8,61
-41,-40,-21,-66,-128,-23,-20,-58
-63,-50,-31,51,127,73,22,-96
69,61,-15,42,-45,-67,19,36
43,-8,93,3,-17,-8,0,127
-33,-12,-55,-47,-39,-10,-42,-68
-99,-45,-19,-51,123,43,93,-71
36,-13,-26,-18,-128,-100,-75,65
53,43,85,30,12,-20,-7,61
0,2,-71,100,25,40,36,26
12,8,68,-10,15,-46,-100,-51
-35,-14,-25,-29,35,36,-2,-15
-4,-1,33,36,127,19,23,-62
-60,-17,-24,-72,127,-11,-33,-80
5,-17,-128,-128,24,-10,71,-35
40,8,119,127,-128,74,26,127
78,29,24,-15,-20,-32,-63,125
6,20,76,-10,-25,21,-10,44
-36,-28,-59,-73,-9,-48,-15,-27
-58,-20,-29,-41,127,-21,-49,-128
45,-5,-128,-74,-128,-53,55,-5
7,35,127,123,127,45,29,92
-36,-11,-8,-12,6,4,13,-66
41,24,87,-8,-52,-29,-12,-17
9,-21,9,-13,-21,32,44,-27
21,9,-18,7,-33,22,-50,120
-62,-19,-30,-1,-6,-19,-9,-80
-55,16,-11,-33,-92,-43,5,-114
69,12,49,34,127,65,-23,28
28,42,27,33,-41,-4,9,100
-26,-4,61,19,48,8,-11,-35
2,-30,-13,-76,-128,-28,-27,72
-25,-25,-71,38,116,65,30,-96
7,9,47,-25,-127,-44,21,19
-30,-3,-17,16,3,12,50,-59
-8,-21,-95,-128,34,-49,-75,25
33,13,127,127,127,49,29,-28
-1,-12,-57,-38,64,-10,-14,10
-39,20,-1,-22,38,34,18,6
22,-9,-10,12,38,-15,-36,-47
28,5,11,-45,96,4,23,53
-28,-31,-110,-55,-128,-65,3,0
51,28,85,108,127,98,49,38
-5,4,29,-4,32,-5,-24,-28
-8,-14,-12,-9,20,-17,-12,-14
-49,-29,0,-89,-40,55,35,-60
-22,-27,-95,-8,101,-128,-69,-49
34,-3,83,108,95,67,28,57
0,28,-25,-15,9,13,31,-11
23,2,59,62,5,36,-5,99
29,69,39,-5,-17,7,-14,-22
-8,-32,-5,-31,6,-15,9,80
14,28,-30,-22,-8,-2,-25,-33
-23,4,6,9,-8,21,33,93
-13,-21,-8,-32,-32,-32,-24,-81
22,0,36,0,44,42,0,51
-42,-23,41,-128,-128,-128,-51,-54
32,29,-23,127,127,127,113,61
14,-19,8,-2,-15,18,-8,11
-23,-15,-46,-12,64,56,126,-46
-16,-20,-3,-79,-128,-57,-113,89
60,42,47,74,127,-15,-106,-8
0,24,32,48,41,40,50,23
-60,5,32,28,18,-13,6,-128
9,2,-126,-64,46,-36,19,103
46,13,10,11,-128,-83,-39,-14
-3,16,127,69,20,44,28,23
-29,-59,-55,-42,-15,-6,-15,26
-22,6,-41,-31,6,-14,-6,-23
-19,-4,-28,-79,103,12,-29,-38
58,27,-11,-8,-2,-45,-42,66
14,-15,-19,55,83,38,18,68
-36,-2,-24,28,23,64,6,-57
-27,-27,52,-9,-24,-19,-29,-17
-78,-22,-16,-18,25,-50,-61,-128
97,37,81,-14,-40,14,49,127
63,40,-14,16,12,-7,-20,127
-15,-2,-11,-4,9,-2,11,36
-48,-41,-5,-31,-124,-9,19,-128
-17,-15,51,51,121,46,-28,11
16,8,-63,-20,-12,-35,-34,49
-7,-14,41,-26,46,-40,0,-14
-56,-21,-92,-52,127,-3,-2,-104
-53,-26,82,115,97,60,68,-72
118,69,50,45,48,-3,-23,83
38,10,-28,-15,11,-5,-3,88
-9,-34,-66,-16,-11,5,-10,-25
-51,-17,10,-18,106,5,-17,-28
-85,-28,-31,-128,-128,-71,-27,-128
29,-21,-32,70,127,46,31,4
72,40,79,127,127,98,61,127
58,73,94,88,127,18,-8,-5
-26,-21,-54,-9,-2,-27,-26,-23
-39,-28,-41,-47,-26,-9,34,-36
-40,-29,-71,-82,127,-55,-88,-80
-26,-21,-23,78,-128,-5,-6,-71
-2,5,123,45,124,50,66,-24
10,6,-8,-17,-15,45,5,-33
36,-5,18,2,-68,-78,-110,127
-34,11,-15,-1,14,10,45,-65
17,14,-15,-7,22,37,108,62
44,-4,-23,-28,-128,1,-106,113
7,-7,-25,4,-8,-53,-95,-13
18,46,75,-13,-113,3,18,-59
26,9,8,8,95,52,16,34
-27,-12,-51,-10,59,-15,16,-119
-67,-83,38,-20,54,6,-13,57
-44,2,-128,-40,-48,-10,9,-117
127,81,127,61,73,16,69,127
27,-20,-73,16,-24,8,7,124
-22,14,25,-10,-2,-14,-9,-33
-36,-15,-31,-96,-128,-80,-43,-82
-19,-15,-33,63,76,75,55,-14
-6,-12,-37,22,6,-13,16,-18
21,8,18,-71,112,-1,-30,3
-31,-9,18,66,-128,-10,-4,38
-47,-23,-102,-67,-128,-37,-74,-121
3,4,20,14,89,-5,-6,-33
71,-2,-24,-1,127,9,1,127
-26,33,108,-5,25,-6,38,82
28,-1,-85,-62,98,-23,-11,-122
46,7,85,127,119,68,7,67
-2,2,64,12,26,-24,-29,55
-53,-39,-47,-32,-13,-34,-4,-35
-56,-8,-45,-26,51,3,-26,-128
-9,-15,-25,-128,-128,-41,108,90
95,41,24,92,52,24,-81,82
-59,-63,-59,-49,-27,-23,15,-76
-1,12,-4,-10,-14,1,-46,-128
41,32,76,-10,-28,-35,7,127
11,-2,19,-6,-5,-1,-61,-50
13,7,-14,-19,-128,-34,34,121
-37,-16,-29,58,127,112,20,-12
-50,-23,-45,-29,75,-11,-20,-101
1,-5,18,17,29,4,35,-122
69,-1,-3,106,-63,24,49,127
16,6,-21,-2,-7,15,-16,-13
-10,24,-4,-24,3,-29,-5,-3
-34,-27,-91,-57,9,0,-8,-57
-56,-31,-32,-23,-128,-36,23,-59
15,-13,-83,26,32,-66,-128,-17
54,20,125,127,127,127,82,21
2,33,-39,32,-44,-14,-64,4
-11,-11,-35,-31,77,-14,60,-62
11,17,28,-12,7,14,-13,100
-13,-43,-87,-74,-124,-68,-29,28
0,2,-3,42,127,42,16,-79
7,26,115,16,99,20,35,-44
-9,-25,-57,-82,127,11,-63,64
-14,0,-51,52,127,26,34,-43
3,12,118,110,35,67,49,25
61,-1,-51,4,6,-3,-18,67
-1,20,-11,-17,-25,-18,-34,-24
-93,-92,3,-21,-45,-40,58,-128
6,-6,-11,-22,-98,26,-16,-16
66,60,-23,-11,31,2,-106,57
-11,31,23,-56,87,-21,-25,-13
-41,-46,-18,87,49,16,45,-72
-7,17,61,14,18,-13,-9,-20
26,37,19,-22,-86,-16,26,24
2,-33,-17,-43,12,-22,-42,52
-16,-37,-61,37,-128,-25,-19,-11
-9,4,-34,-22,25,5,-5,-30
-66,-36,-30,-22,-128,-21,11,-84
29,-2,38,53,35,-2,-12,-13
48,35,-22,24,40,18,44,47
-6,-23,-13,-43,-34,-3,-12,55
30,-4,-28,-62,-5,-24,-20,15
-20,-34,-37,24,-128,-6,14,4
-46,-12,-49,-72,-39,-22,127,-20
5,-5,-28,-50,-128,-41,-87,5
68,28,70,101,-64,96,43,58
26,42,25,21,46,-39,-34,38
-26,0,-118,-47,12,-8,-14,-48
-16,-36,48,5,-35,-8,13,-29
-13,-1,-21,-72,74,-11,-10,-6
6,46,-93,-95,-57,-58,1,-61
10,-33,127,127,-128,48,59,64
24,35,37,105,127,47,11,-95
-2,10,0,-30,-4,-19,-3,78
-28,-19,-19,-60,-11,7,-12,-48
-65,-50,-38,-75,99,20,1,-81
45,-1,-77,0,-128,-28,65,52
92,78,127,50,17,4,-77,12
20,-16,35,0,18,10,53,127
-49,-10,-73,-7,11,54,-47,-58
-6,-1,12,8,62,-42,-69,-82
31,-4,4,0,-15,-32,6,67
-2,-6,-54,-7,-21,10,-5,-11
-25,13,-4,-11,-40,-32,22,-56
-15,-10,63,-45,13,28,27,-64
40,12,5,71,127,12,-12,127
-9,-15,10,24,70,17,6,-118
-20,18,29,11,5,7,11,121
-31,-34,-64,-97,83,-53,-31,-86
-15,-43,-7,72,-12,-2,72,1
1,22,51,28,127,26,24,34
40,79,84,127,127,66,-25,78
28,-12,21,-35,8,-12,-36,-21
-9,24,-8,-54,16,18,7,-46
-41,-37,-86,-25,-96,-3,14,-50
-27,2,93,94,127,-10,-15,-22
0,-12,26,-27,127,35,58,59
40,11,-64,-128,-128,37,20,78
1,-9,99,127,-128,-20,6,38
-28,-24,-62,20,71,35,-22,-7
30,22,44,-34,27,-5,12,-62
-27,26,-27,-42,18,-26,89,110
23,15,35,-66,-64,-7,-69,-33
-33,-52,-112,-28,-1,-22,-11,-2
4,5,19,47,76,-13,-86,9
-4,-40,-57,-30,-128,-106,55,76
72,80,42,3,88,93,-54,20
1,6,39,-3,9,-31,36,-21
15,-16,-19,-36,29,3,3,86
-77,-35,-115,-37,-105,14,-49,-76
-99,-70,-128,-128,-128,-128,102,-101
127,97,93,127,127,127,57,111
66,58,108,-51,60,-40,-37,127
-38,-31,-49,-75,2,1,8,-21
-47,-59,-128,-70,-21,-21,-17,-48
-49,24,127,-24,-24,-53,-72,-103
1,-19,-35,-37,15,-13,19,-65
26,-16,-77,15,-56,21,96,110
7,38,-1,46,-128,35,50,56
13,4,58,-6,26,-49,-128,-13
-43,-25,-21,-7,54,-51,-63,-88
-29,-33,-28,28,32,34,-44,-65
11,-4,-112,-123,127,-11,77,-3
17,36,127,127,127,93,98,3
127,59,7,11,70,23,2,127
4,-36,-26,-69,-14,-49,-122,45
-59,-38,14,2,127,4,0,-65
17,20,14,51,-104,21,17,-55
5,20,-25,9,125,53,38,103
-13,-24,44,1,-128,-23,-46,10
-7,26,-87,-14,-128,-46,31,-128
30,-38,-26,-16,-6,-9,9,127
-2,-13,46,-22,-87,-128,-68,7
43,42,12,19,15,25,27,6
-12,-29,-45,-41,127,-5,-70,-41
-40,4,82,1,-128,25,35,-28
-42,-47,-128,-128,-63,-90,-51,-128
66,47,127,127,127,127,127,86
9,-22,-8,-22,-15,19,-17,64
-31,-10,19,-45,-71,-60,-128,-15
21,28,-99,-128,56,-128,-84,-112
6,2,43,127,127,127,127,82
19,-13,-16,-54,-12,-20,-27,127
-22,-50,-51,51,-95,4,-37,25
-21,19,81,121,2,9,33,-76
5,69,51,10,-128,-23,-12,-74
18,-6,-30,20,127,20,32,127
-44,-54,-38,-19,-126,-17,-21,-45
14,4,-78,-46,-31,10,0,-32
-36,-2,2,-60,74,-50,-38,-72
-34,-45,-128,127,12,116,127,-89
70,6,64,-31,14,2,-23,36
-7,1,57,-8,-32,-31,-23,104
0,23,74,16,11,-44,-42,44
-36,-28,18,-12,-38,-31,-6,-123
-3,-59,-83,-58,-3,34,35,3
-27,-5,3,65,23,-40,23,-21
43,46,-29,-13,40,8,-74,55
2,3,-11,-22,-23,-12,-11,-14
-45,18,-54,11,35,0,-3,-28
-42,-6,123,-8,-128,42,69,-112
33,-52,-71,-51,-37,-100,-75,127
-4,-25,3,67,37,52,87,-15
-6,15,-7,-12,66,10,-40,-43
0,9,3,14,-30,-20,-42,13
-57,-51,-89,-99,-128,-57,32,-128
-5,-31,23,127,127,44,90,120
24,48,0,-5,-128,5,-67,-77
30,15,42,-12,-86,-2,-17,48
-49,-5,84,-24,127,-91,-64,-102
66,1,-86,127,5,127,123,127
-22,15,53,-11,-7,-34,0,-71
7,-19,-30,-28,23,-17,3,20
-44,-10,-42,-27,-31,20,13,-39
-32,-17,-28,-94,-25,50,25,62
56,9,-54,62,-37,-72,-65,-48
31,7,42,9,74,20,23,85
-27,-43,4,-13,-22,64,2,-7
-25,2,4,-22,-62,-72,-28,-54
-16,11,-50,-26,-72,-39,-34,-77
18,-27,51,10,70,65,88,37
31,11,-128,-128,59,-14,22,50
-10,69,127,127,127,107,51,48
30,20,43,61,83,3,9,-14
18,-12,-65,-19,32,-1,16,127
-85,-43,-84,-35,8,-3,22,-71
-56,-49,-31,-58,8,31,-8,-128
83,19,-37,-48,31,-24,-20,80
-7,-8,-49,-16,127,-44,-106,-18
39,8,127,127,127,73,57,-40
-23,13,7,-27,43,-13,12,58
-18,21,44,-6,20,3,-31,-17
-8,-14,-69,-30,10,-17,-39,-61
-30,-10,25,-128,-128,-63,-9,-24
-68,-20,-22,127,127,103,121,-128
36,20,4,18,-128,-28,-34,103
-21,-49,-39,-21,-128,9,-30,120
52,6,1,19,-24,0,14,-51
41,28,37,-16,-7,-28,5,95
-47,-53,-24,-17,22,14,58,-128
-24,-1,-35,-9,-27,-76,-77,65
-80,-13,25,-59,-10,7,35,-112
88,4,127,41,-30,9,-11,127
76,46,-47,-12,-78,-57,-43,127
-13,19,-29,-4,-15,13,109,-32
-16,-14,117,-50,100,-7,-33,-6
-27,-28,-109,72,-25,-13,-54,-17
-116,-71,-57,-66,-128,-35,46,-128
-11,14,114,76,127,127,8,-128
96,96,-28,-48,127,-31,60,127
72,-17,-77,-50,-128,-59,10,127
-44,-8,2,-72,127,23,-65,-53
-10,-30,99,73,127,50,30,-24
-45,-26,8,4,-34,-32,-11,-59
-38,-29,-62,-88,127,50,-6,-121
48,48,88,127,45,39,11,103
65,127,127,44,81,18,10,72
-24,-33,-84,-71,0,10,6,-49
-43,-38,-73,-50,-32,30,-57,-65
-44,-46,33,-72,-63,-128,-44,-72
11,19,-64,-7,-45,32,59,58
34,37,36,-39,84,5,40,26
1,-23,-29,20,-36,-1,63,127
4,-29,34,19,-1,34,-41,53
-2,7,3,17,35,0,-64,6
24,21,-14,-39,7,-55,-31,-85
-61,15,-14,29,56,12,-13,-128
-6,2,-40,20,-74,26,90,-28
49,-6,-53,-1,-93,17,-21,127
9,-32,127,15,-8,-85,-83,33
-51,-8,-103,-31,28,12,-10,-87
-74,-46,-56,-105,-128,-115,-69,-128
83,32,87,127,127,80,127,127
16,36,66,54,68,99,49,127
38,20,-58,-17,3,-39,-46,-8
15,-18,22,-126,106,-47,-44,-42
-30,29,35,102,-2,29,11,-6
-41,-69,-38,83,-83,34,31,-68
-38,-64,-128,-55,127,39,57,-96
-7,7,127,33,-128,-18,-37,49
46,21,102,-26,-128,84,-2,23
28,33,15,-43,127,-109,-44,-30
16,9,-95,77,-94,11,117,113
6,14,-37,-8,13,-78,-128,-5
-73,-34,97,-126,104,31,-41,-51
-43,-39,-114,119,61,3,31,-128
39,-20,27,7,-128,-1,23,52
54,17,-112,-128,-1,-3,6,127
-1,50,127,74,127,5,37,-13
-32,4,-81,87,127,74,88,13
50,38,47,-6,-23,-29,-128,44
-29,-72,-47,-78,-128,-54,-53,-94
-37,-5,-54,12,127,17,-10,9
19,24,-53,11,-128,-2,43,-8
-36,-41,-26,-23,-43,-30,42,-62
-128,-44,-84,-75,-128,79,-3,-128
101,8,15,33,64,-109,-128,-44
115,85,-47,-54,62,-21,48,127
-15,68,127,127,127,114,78,-110
-25,-8,-21,14,41,-13,-66,-7
-36,-48,2,-43,13,-52,-79,-70
-48,-39,-128,-128,127,-43,-47,-63
7,67,41,127,127,127,127,-84
64,28,-66,-10,94,25,33,127
-5,-95,49,-23,-46,-11,-21,-36
2,9,25,-43,-8,-47,-26,-57
-5,4,37,-41,29,-67,-31,98
-48,-35,-24,-65,-128,-12,42,-38
-29,-28,-83,52,89,54,-9,-17
-21,-16,47,-128,-98,-93,-19,16
32,47,127,84,127,13,17,35
-42,-14,-55,-64,-128,18,102,-11
-26,-11,12,1,-70,127,-64,-63
33,19,-37,-25,65,-128,-90,92
-17,16,30,-1,-11,3,-113,-73
-9,-6,-90,-70,-63,0,-2,17
7,30,84,23,-104,34,22,43
0,-31,2,39,-88,14,29,-22
11,8,-20,4,-33,-31,63,122
-26,-18,-31,3,-21,-36,-44,-57
-38,-86,-128,-128,127,-40,19,-113
51,57,127,127,127,127,127,127
45,41,-42,-26,86,-55,-85,-12
-24,21,13,-19,25,-1,-22,-69
-50,-70,-77,-65,58,-41,-46,-81
-38,-9,7,-53,-128,38,43,-69
-98,-41,3,37,117,13,4,-69
119,23,25,36,86,27,77,49
84,68,-103,-47,-128,-3,-47,127
-40,-33,127,17,-128,-26,-37,-6
-39,14,22,-10,-7,15,-10,-53
-35,44,39,-37,-128,112,78,-53
-39,-77,-10,74,127,127,24,-70
62,9,-26,-25,127,-79,-49,78
26,-15,-83,-69,-128,-70,-29,-19
-17,-22,-42,126,108,48,73,91
-34,18,124,10,10,5,-86,-104
-42,20,-28,-12,23,49,127,-44
127,67,-8,-8,-3,67,28,127
-28,-7,110,-42,-71,-87,-104,-1
-62,-72,-35,24,56,64,31,-81
46,8,59,-40,-77,61,-24,18
39,47,-56,75,-59,-61,-24,73
-24,16,106,-10,-17,3,-12,-55
-70,-63,-34,19,-58,21,82,-128
43,12,-31,3,-118,5,36,127
19,41,86,53,74,21,-59,17
2,12,-73,-49,97,-27,-21,17
-7,0,82,30,127,87,2,-4
-52,-93,-125,-99,-128,-119,-18,-35
-13,38,127,97,127,63,47,-66
18,5,-58,-12,-22,11,33,-11
-37,-2,74,-29,18,-24,-66,0
-104,-95,-87,-128,127,-128,-73,-128
84,67,24,127,127,127,60,-10
127,108,49,127,127,5,16,127
-16,21,27,-48,-49,55,-26,-125
-65,-84,-67,-43,52,-54,127,-28
-45,-20,-47,-25,16,-31,-121,-42
-19,-45,10,-55,-83,64,29,-43
72,55,8,-26,-6,-92,-56,106
-27,31,-28,-12,-96,-35,-2,-128
21,23,100,-3,0,17,127,127
-8,-9,32,18,-48,56,-50,127
-11,-22,-128,-15,-28,-43,-33,-51
-39,-65,79,-32,127,-75,-128,-29
51,57,88,87,-128,67,94,23
8,15,14,-4,16,127,91,-83
18,14,-28,-34,-29,-128,-90,119
-39,-30,-33,-46,-51,-32,-30,-67
-59,-52,-127,-67,110,-4,-57,-86
-19,-31,7,100,-128,32,72,-114
82,8,-80,-50,-128,-55,-85,127
7,3,-19,-27,69,-6,-23,-10
-35,-15,-18,58,127,10,-11,-12
-21,34,26,11,105,-1,34,-98
8,-16,-59,-1,-2,-32,-16,33
-13,0,-109,-72,127,35,-48,29
-7,-14,127,45,-128,-34,4,-24
34,12,-7,-128,-128,-92,27,-103
30,18,105,127,-105,34,54,127
-33,-25,-85,16,-9,-13,-50,-36
-14,-12,-50,-21,25,69,-10,-45
-54,-49,-62,-44,-11,30,11,-14
41,68,71,3,51,53,15,-31
-32,-46,-85,-31,-7,-36,40,4
-21,-34,-8,6,-7,-7,-113,-15
26,-29,-30,8,61,10,75,-2
38,80,-6,7,-33,-75,-89,17
67,36,-11,6,61,30,-23,80
-82,-51,17,-66,10,3,20,-66
-54,-33,40,46,-128,41,34,-19
28,47,-2,32,-39,-25,51,-12
11,31,-52,0,44,37,-36,-128
-1,-43,76,-32,127,-13,59,127
39,-25,-5,65,25,12,-97,108
-32,-8,47,-13,41,-12,-37,-88
-37,-27,-35,-55,-128,40,31,-72
-35,-32,-81,-101,-128,-26,-3,-49
3,17,54,120,127,-9,1,-83
-14,-13,-6,-35,-96,-25,-1,8
-23,11,-87,-7,104,22,29,14
18,-18,77,-128,-34,-66,-45,-5
4,18,127,127,-17,28,-11,-128
11,13,-49,127,127,105,72,127
-22,-16,-23,-32,-1,58,64,1
44,38,55,-1,22,-80,-47,59
-86,-37,-81,-38,45,-114,-38,22
-110,-122,-128,-128,-128,-128,-24,-128
127,127,127,127,127,127,35,127
73,51,-57,-25,-71,-67,24,127
-39,-43,-13,-44,-24,-47,1,-45
-18,-31,-47,-26,-12,25,-24,-103
-49,-28,-54,-35,-43,-41,-15,-57
-55,-35,15,-7,-37,-7,2,-91
-110,-56,-42,-45,76,127,100,-128
28,-35,-128,-5,-91,-128,-76,127
127,127,127,70,29,-2,29,127
25,7,-77,-24,-48,-14,15,-5
-35,-33,-60,-11,42,21,-12,-56
-41,-38,-74,-125,-74,-26,-5,-56
-42,-23,30,92,127,52,5,-37
-51,-28,94,-114,-128,-70,-45,-85
5,-9,-119,4,23,-17,56,-30
8,41,127,-117,127,-17,7,34
49,32,-20,127,127,127,51,70
3,-24,-55,-52,-7,-118,-122,32
-33,-40,-37,-62,-14,-28,-29,-28
-29,-33,-58,-46,-11,35,-23,-34
-42,14,-107,-128,70,-128,-11,-128
35,57,127,51,127,92,100,19
59,28,-4,127,127,67,27,127
35,-24,-39,12,-20,-38,-128,20
-20,-22,-6,-38,-46,-2,-56,-123
-97,-75,-85,-49,-52,102,67,90
-48,59,62,-4,-3,-128,-2,-128
127,99,53,27,-61,55,75,127
24,17,-59,8,2,26,3,54
-79,-54,-37,-22,-69,55,34,-128
127,74,123,17,-96,-42,-128,127
-45,-70,-13,-10,51,-31,-23,-38
-21,-27,-20,-71,101,7,1,-52
-41,5,11,106,-93,93,18,-38
-37,-20,-54,-24,-4,-123,-52,-64
-15,2,-18,-117,127,-128,-41,-42
9,29,127,127,78,91,47,34
-1,-44,29,8,96,36,5,-9
37,26,8,-13,11,4,-3,65
-11,10,-14,-115,119,-47,-48,-31
-10,-15,-74,19,-128,49,35,23
2,-8,-1,11,-14,10,2,-51
14,27,119,21,-28,-27,-34,70
-63,-44,-36,66,96,94,127,12
25,-11,-51,-74,111,-31,-65,79
98,69,41,127,-48,42,4,7
13,41,127,34,-16,18,0,88
-59,-58,-120,-64,-128,-31,0,-63
-43,-35,-5,19,82,49,-42,-121
-96,-14,-63,-118,-82,-128,105,14
23,-55,-51,99,127,51,-46,85
114,96,86,37,62,5,38,49
34,48,-46,-15,-33,-18,-24,85
5,2,-10,-19,-30,86,-9,38
-45,-28,59,-31,112,-120,-31,-55
-51,-44,-112,-23,-128,17,15,-110
10,-18,15,15,1,60,-5,-99
22,19,-19,-14,-128,-47,84,35
69,27,16,-10,15,-45,-95,127
-22,-25,-29,-22,-34,8,70,-43
9,34,78,-19,22,33,-60,69
-43,-38,-21,-61,-128,-60,-22,-95
-13,-13,-90,12,-80,-111,39,-8
34,26,127,122,127,24,-16,-62
-56,4,-1,-10,114,7,5,6
-28,-38,-60,-128,-128,-74,-3,6
37,32,58,111,-81,24,-9,-71
26,-22,-13,11,51,8,35,67
-2,8,-70,-19,6,2,0,6
-42,-67,-42,-56,24,-14,-1,-56
-22,39,23,-121,73,-24,-76,-72
60,48,54,127,-128,72,123,35
35,53,76,-7,-14,58,8,52
-32,-56,-6,-31,22,-52,-30,36
-5,56,88,-7,-1,-15,-5,20
21,-22,-97,-128,-128,-8,-56,7
-2,-27,-10,81,127,50,25,16
-3,-21,5,11,-71,20,66,78
-41,-5,-29,11,-12,57,-53,-128
31,-2,-13,-14,-53,-1,-4,95
-1,-21,-15,-36,19,-42,31,38
-1,9,-9,42,19,39,-3,-11
24,1,-8,4,13,-18,24,-9
-18,0,21,-4,16,-23,-70,-28
-75,19,-128,-128,-8,-21,-82,-128
-2,-33,127,127,-128,64,127,127
127,88,67,38,55,36,-128,117
-3,-7,-67,-47,31,-37,35,114
-45,-42,-63,-15,30,-33,-30,-79
-58,-61,-72,-113,-128,-64,59,-84
-1,-14,-16,52,127,115,5,52
-14,17,36,15,-128,-83,-13,-128
94,61,1,22,30,23,40,127
-16,-33,15,-48,74,-22,-7,-31
-19,-2,5,-17,-79,-22,-13,-44
-8,-10,84,66,58,37,24,-81
-22,-15,-76,-9,13,37,14,-21
-61,-20,47,-15,26,-27,-40,-91
-12,-24,-79,-63,3,-27,-39,38
24,5,118,-60,-128,-21,3,-26
43,32,28,112,9,38,22,106
22,-2,-51,21,4,22,5,-4
-56,-13,0,-33,17,35,2,-108
-72,-51,-42,-17,41,-31,12,-40
82,12,-28,-18,-31,-55,-67,127
31,27,100,5,26,-14,-29,-35
-24,-12,-89,0,56,-15,-11,17
-83,-22,84,-12,-114,26,22,-107
26,12,20,-16,30,7,28,-78
124,52,11,60,-61,-14,-23,127
-53,10,-55,-47,10,11,24,-27
-18,-29,-6,-56,127,31,-38,-128
30,-11,16,104,127,-77,-23,127
-9,24,-72,5,-36,-2,-25,-54
-65,6,-12,-60,80,-1,17,-88
9,-11,-3,-65,-128,-62,35,127
24,-18,80,64,117,37,-35,-60
-6,6,53,-18,-7,-20,70,-62
-9,-16,-18,-88,43,-58,-28,88
32,0,-128,-128,127,-19,-96,39
4,9,127,127,9,62,1,-26
27,16,-30,-14,84,-11,21,49
-35,-6,-60,-49,-1,5,-7,-55
-44,-74,-126,-59,21,59,-13,-46
-7,56,127,12,57,-85,10,-3
5,48,97,23,-26,-5,-23,-68
-16,-29,-43,-8,-48,-35,-12,-13
2,-40,-11,-3,79,26,21,68
-42,2,-94,-72,-95,1,34,-2
-15,30,15,-38,-128,-41,1,-87
127,44,75,67,60,-37,-58,127
47,-2,-25,-6,-2,-8,-14,60
-41,-15,-7,-32,-9,-73,-19,-107
-31,-24,-19,-6,68,34,-41,24
-30,-33,-91,-126,-128,-81,-6,-77
2,-19,73,118,127,96,5,18
29,9,50,42,31,-69,-16,77
-13,39,-22,-55,49,8,11,-31
-40,-11,-50,-6,16,-4,28,-58
19,-21,-73,10,-95,2,-25,108
-4,6,93,39,126,9,10,-54
-7,32,86,-21,-55,6,5,-42
34,-28,-46,-2,5,10,31,37
-3,28,-26,-2,11,16,-17,38
-51,-2,-28,-128,7,31,-62,-91
-24,-28,75,127,-84,56,127,-104
38,-7,-58,11,-86,14,-63,65
73,18,-6,-34,-56,-40,-128,127
-53,-14,-55,-36,4,0,-39,-128
11,4,45,-75,-68,-40,48,75
-24,-15,-29,-46,-49,-2,51,21
17,-3,-82,127,127,103,31,24
-61,-39,12,24,23,0,61,-37
-1,-18,43,-24,-22,-34,-27,52
91,93,4,-16,98,-18,-108,-18
47,22,-12,-29,-128,-45,48,100
-31,-39,-55,3,-27,39,7,-35
-47,-41,-89,-19,-4,-22,-13,-80
-96,-21,127,-54,57,70,18,-128
28,25,26,78,89,-24,39,30
57,17,-44,-12,5,-112,-98,96
23,11,-13,-21,-30,-7,14,71
-31,-4,-34,-5,3,56,33,-32
-14,-40,30,28,-91,-26,-95,-4
-26,-14,-98,-18,113,10,-23,-124
-43,11,21,-12,41,84,-26,6
-68,-69,56,-33,24,-87,44,-45
69,39,4,-40,-128,-85,8,65
89,85,-7,68,88,12,-52,109
-29,-47,-52,-35,8,-8,-2,-40
-46,-29,-23,-10,34,1,-32,-58
-122,-69,-39,-117,103,-7,-51,-128
12,33,-68,15,127,2,93,1
105,11,60,115,-47,65,38,127
5,-1,-52,36,-128,-72,-7,105
-54,20,111,29,64,12,-5,-68
-29,-56,36,-34,-3,8,-13,-9
-35,-22,-121,-45,-21,-54,-16,-57
-16,30,122,-41,-11,59,73,-40
1,-44,-25,-26,49,-30,-59,42
-41,24,35,0,127,-35,-63,-50
-31,-18,-128,-128,-128,-97,37,-58
127,58,127,127,127,109,50,95
54,2,-12,0,-14,-29,-10,127
-51,-19,-82,-78,-11,-28,-15,-52
-39,-18,-60,-26,12,21,4,-95
-40,-41,-10,-18,-39,127,27,-53
-84,-60,-34,-16,66,-98,51,-128
-37,-4,9,-68,-16,-95,-62,-1
127,99,4,127,127,109,14,127
113,63,46,3,-20,-32,25,65
-13,-36,71,-23,-26,-2,7,-22
-59,-43,-36,-14,-13,12,-16,-78
-95,-53,-38,-12,-24,46,-20,-128
-48,9,70,-6,89,12,127,-115
22,6,4,-45,-128,-73,-128,108
-5,9,-53,27,-10,-28,59,-128
85,46,45,22,66,18,-15,127
35,-7,64,14,6,8,-37,30
-51,-41,-43,-39,41,-11,0,-65
-32,12,20,-128,-54,-8,3,-36
30,12,-62,116,-3,48,76,26
-18,4,84,26,-128,-29,-15,-24
-35,-45,-55,42,80,31,-6,-47
-53,-78,-20,-128,-86,-89,-19,-41
127,127,125,127,127,121,66,26
40,-4,18,-21,4,-5,16,127
-37,-55,-50,-37,4,2,-38,-81
-26,0,-1,-53,1,-15,-60,-25
-101,-95,-126,-128,127,-50,67,-42
36,20,-38,67,-30,6,-97,-11
123,97,127,127,1,46,82,127
40,14,-45,-33,10,-17,-81,127
-34,11,38,-73,-27,61,-35,-65
-66,-24,-33,-34,-4,-34,-31,-76
-16,-54,-82,-25,1,-13,75,43
36,35,-11,2,-21,11,0,89
-2,8,79,-18,-60,-19,-28,13
-53,-65,-32,11,-17,2,76,-128
-8,24,14,10,-17,29,-27,34
51,39,-42,3,-27,13,-84,0
-36,1,21,-9,-6,-30,-21,-18
-49,-44,-81,-46,-128,-1,0,-84
-4,-13,24,53,114,48,71,-117
55,51,110,-20,6,79,22,101
37,18,-69,-71,-128,-128,-92,48
-16,-17,97,116,21,23,18,-128
12,32,-56,-18,33,22,-26,127
-52,-31,-4,-29,15,-6,-17,-39
-27,-29,-128,-128,127,-26,-27,-84
15,-17,127,18,-128,7,44,83
-59,-54,-128,115,69,44,16,-66
-30,-2,13,-40,-128,61,127,-84
100,80,106,58,55,-41,-89,123
-14,-48,-69,-38,-37,18,-25,40
-32,-17,-89,-102,34,-74,-21,-54
8,32,2,27,-65,14,40,14
-35,-12,1,-6,-11,18,11,-79
-2,18,-53,-26,26,15,17,-111
65,3,39,-19,-14,23,11,90
17,30,104,47,-26,-4,-15,46
-68,-40,-9,3,32,127,127,-85
-49,-25,-4,2,61,-75,-82,18
64,10,-20,10,39,-25,-73,51
13,26,10,-9,32,4,0,40
12,3,-48,-102,-128,-73,-8,9
-12,-8,14,98,127,52,-26,3
8,36,-97,-18,69,60,33,-128
0,19,127,-17,-128,113,60,113
29,-41,11,21,68,-37,10,-49
24,-3,-43,-15,0,-41,13,116
-28,-38,-70,-13,-105,-22,-9,35
-47,-28,-49,-93,115,40,-24,-88
-32,38,61,77,-53,-54,58,-84
81,6,21,127,127,77,-102,115
7,0,-45,-29,-32,-31,-81,-62
-55,-12,-101,-50,-25,-33,-40,-30
-60,-24,-3,-42,43,19,44,-128
56,34,19,-13,-32,-6,20,26
9,-13,37,59,38,34,17,67
-4,6,-19,-2,26,-2,-4,10
-49,-42,18,-40,21,4,-32,-128
-23,-19,-43,41,73,-13,47,-23
6,19,62,20,31,-7,10,23
19,15,4,-29,2,-63,-70,97
8,8,64,56,-25,5,-4,-38
-42,-54,-67,-27,-16,-9,44,-43
-63,-25,35,-68,83,21,22,-63
41,-1,-4,108,127,76,-30,43
91,67,9,16,32,9,34,38
8,3,-46,-18,-7,-22,40,119
-22,-29,-20,-39,65,2,-35,0
-66,-15,13,-24,34,-36,-44,-101
34,10,-77,-128,-128,-128,-16,21
46,23,-38,127,127,79,66,46
-4,60,127,5,40,-16,6,-43
8,-7,-35,-39,-3,-29,-15,8
-26,-39,9,-28,28,44,-3,-17
-43,-35,-76,-62,11,-14,-10,-70
12,24,-77,32,-59,7,41,18
40,44,115,29,-65,7,0,85
-63,-70,-70,-76,-34,-62,-27,-72
-4,12,-2,119,127,49,-21,-1
56,-10,-18,-21,-46,-80,-10,43
-23,26,46,-27,-21,-19,7,-17
-39,-17,-33,5,-7,-5,-4,-27
-6,-5,-13,-58,52,-22,-24,-1
-1,0,-53,-2,-70,24,-1,-6
-30,10,127,64,122,-27,34,-117
43,-25,-65,-10,-91,89,-52,118
-20,-34,-74,-55,-128,-61,11,27
26,20,25,-36,7,-59,57,-25
30,2,-61,31,127,30,-93,16
14,23,-12,-31,-79,-68,-77,8
4,20,85,-35,105,-39,-12,-31
-103,-112,-118,-27,-128,80,127,-113
-68,25,106,49,81,69,2,-128
127,45,53,14,-7,-97,-128,127
18,7,-1,-31,-12,-41,-2,91
-73,-47,-64,-46,29,-7,-11,-106
-57,-47,-7,-128,-5,-43,-7,-75
13,44,-5,127,127,120,61,-76
-5,18,30,-11,28,-1,35,25
-5,-37,-50,-48,-75,-44,-28,-6
-8,-40,-7,-25,-26,85,-9,-28
12,-8,-13,-8,-33,-41,16,61
-14,63,120,-11,-128,-14,-11,-88
16,2,-98,-26,-46,13,27,127
-45,-25,-49,-128,-56,-100,-46,-66
32,-9,61,127,127,89,39,104
26,20,7,-4,-4,25,9,-13
-25,-13,-43,46,-25,3,-5,94
-12,12,99,-27,-28,-31,9,-35
-26,-23,-2,-7,-22,-12,-45,-78
-26,-42,40,-59,-128,-97,-74,11
48,80,22,63,127,78,84,-128
2,3,23,7,85,96,-10,109
-38,-73,-98,-34,25,-128,-28,-38
24,26,-13,19,-128,15,57,-31
78,76,-38,2,-42,-48,-128,71
7,-25,56,-18,13,7,22,35
-15,-41,-65,-28,-65,48,8,-56
-56,-22,-22,-42,87,-22,97,-105
21,24,7,66,-128,-3,-40,127
1,-15,62,-6,6,-1,-43,117
-21,21,-68,-25,34,-69,-24,-98
-10,7,19,-15,99,-36,-55,-67
22,33,79,41,91,127,124,35
-27,10,4,39,-82,-3,50,-48
4,-28,-95,9,101,14,-46,-20
-23,-48,33,-37,-1,0,-23,-12
-24,-10,65,-128,-33,-128,-45,-33
33,54,64,127,61,72,53,3
30,2,-4,-3,46,4,14,40
-41,0,-59,-40,2,17,-24,-67
-72,-56,53,-5,48,-33,6,-29
-19,-29,-127,-128,-74,-81,-77,-85
92,54,127,127,55,61,105,127
26,17,3,13,11,5,-20,72
8,-14,-77,-33,3,-36,-5,64
-66,-23,-39,-63,-13,-10,21,-121
-25,-6,27,13,-125,-19,-45,-22
21,38,91,-2,-128,54,77,-7
1,3,15,37,2,-18,-40,24
-104,-25,-95,-5,-35,-20,61,-124
-1,-37,-9,-53,-68,-12,26,-51
123,75,102,47,31,-53,-128,106
25,37,-44,-13,-30,40,42,111
-40,-30,-28,-53,69,-12,-24,-65
-75,-61,-3,33,-128,-60,14,-119
-22,-1,-55,5,-78,28,21,-89
19,-8,34,16,75,23,19,20
29,7,-18,-83,-64,-37,54,45
24,12,26,68,98,58,34,106
-4,-11,-67,-15,30,-16,-50,-10
-38,-33,-57,-61,-128,-55,-41,-29
1,33,91,-48,59,-3,11,-12
18,16,-12,127,127,108,-21,-11
-17,-8,-15,-60,127,-63,-23,-26
-15,-19,-103,-95,-128,-99,-24,-29
18,1,9,127,127,64,18,10
15,1,127,4,16,17,10,-4
-9,-3,12,-26,-3,81,15,57
-21,24,-11,-19,64,-61,10,-44
-27,-63,-82,-85,-58,-23,-31,-71
44,58,4,97,-1,60,-29,98
11,34,-14,-16,-35,-69,41,31
-42,-57,-32,11,34,4,-9,11
-25,-41,-33,-20,-48,-31,-59,-128
40,0,13,-35,-109,-7,18,127
-27,-7,-52,17,127,64,-17,-123
51,19,-1,-5,-98,4,34,13
33,11,19,-95,7,-67,16,127
-56,-16,-39,127,127,102,-3,-66
5,-4,93,36,127,-15,-35,-35
7,12,-44,-15,-62,42,29,5
-11,-36,-55,-29,-38,-53,-65,-51
8,23,-31,-35,58,-38,25,93
-17,-27,63,37,-128,33,17,-32
12,-16,-38,3,72,-58,-88,-12
-5,0,52,-18,-16,-1,-4,-7
-24,-1,-30,40,44,42,33,13
-55,14,10,-39,53,-5,4,-128
-60,-56,2,8,-6,53,65,-56
122,48,-85,-10,44,-69,-28,127
62,26,122,25,105,14,-4,69
-28,-4,10,-14,7,3,-38,-26
-55,-4,-39,-83,53,-42,-50,-85
-26,-70,-73,45,81,-27,40,-50
70,78,21,29,-128,-32,24,19
42,40,-8,20,25,30,14,97
-30,-8,-10,-19,0,-39,-22,-6
-35,-29,12,-27,10,2,62,-94
22,4,-109,-41,-48,-40,-21,110
-1,1,58,4,2,-18,7,23
-3,-9,0,-72,61,-35,-46,9
-19,-34,-74,0,-128,4,-3,-2
-54,9,18,99,127,20,51,-86
65,55,96,104,127,92,11,21
2,-18,-53,-40,-36,7,-89,-14
-38,-3,54,-24,10,33,65,-34
73,32,-20,-17,1,-16,-7,66
-1,10,-30,-58,1,-89,-95,38
-33,-10,-18,3,-128,-29,-14,-16
-40,-53,-100,31,-115,67,84,-111
-26,2,75,-2,-4,-11,-32,-128
60,8,16,25,-122,-13,22,127
34,36,-11,2,64,17,22,28
-10,22,10,-37,23,14,-9,-43
-128,-71,-28,-32,56,-50,-40,-78
20,-9,-51,-44,-24,-26,12,-128
127,73,86,118,-7,92,120,127
-29,-10,-9,-1,14,39,-13,-26
-56,-24,23,-24,43,-25,-21,-111
-23,-8,50,-72,-128,9,-19,-7
1,11,0,-54,25,-95,-18,-19
10,-7,-66,71,-128,8,22,56
-32,-21,-9,-5,18,-4,57,42
-23,-50,-58,-45,127,-16,23,53
1,35,70,3,-128,-3,-71,-88
27,2,-8,21,-73,6,19,-41
29,16,-11,21,13,74,33,115
-29,-16,7,-2,71,-30,-3,-6
-123,-51,-57,-128,127,-84,-9,-128
107,9,32,127,-128,63,-1,127
123,49,127,100,127,86,24,127
-6,12,-56,-79,-16,-8,-8,-2
-54,-15,-61,-87,-6,35,2,-94
-97,-51,-35,-41,-6,-28,-44,-109
72,64,43,9,37,20,9,-29
4,-35,-12,-16,-24,23,35,118
-71,-33,-28,-37,-3,-7,-33,-78
-17,6,-94,19,-128,8,127,-6
47,-46,-41,26,-1,-41,-122,-47
53,27,33,28,-24,7,26,127
-51,32,-5,-10,16,9,-38,-115
-80,-23,-55,-107,-103,-74,49,-84
-12,-18,-99,54,84,56,-13,67
51,32,100,38,25,-40,-2,-47
66,4,10,16,25,-45,-47,119
-31,-49,-62,-4,17,10,-21,-4
-22,14,14,-36,-53,-5,-9,-66
-31,-2,30,9,108,-29,2,-47
-75,-36,-128,-128,89,-76,-55,-56
20,19,-25,127,127,115,64,-68
91,56,127,59,5,32,52,127
-9,-13,1,-20,1,6,-17,-90
-27,-46,-76,-55,82,6,-11,-14
-53,0,6,-20,-68,-10,18,-79
2,13,-17,-3,127,43,-20,-80
13,0,4,10,-128,-37,-10,54
1,-15,-62,-19,127,-53,23,86
-3,-44,36,-68,-128,-58,20,-36
-17,13,-21,103,2,78,0,25
-10,14,18,48,127,-7,-54,-7
15,19,1,-22,1,-29,-16,-28
-33,3,-52,-42,-44,51,77,-56
14,-22,-83,-117,42,-71,-38,59
-45,-15,62,82,-33,112,73,-89
-35,21,127,-128,-128,-128,-23,-83
123,54,40,121,-35,14,-128,127
65,13,13,-3,68,-7,1,127
-74,-35,-52,-60,0,-6,-18,-58
-84,-87,-76,-26,-1,14,56,-128
32,24,-4,-2,-19,-1,9,58
13,-2,18,-17,-61,-49,-27,109
-19,41,-102,-30,97,53,18,-47
40,-42,113,-14,-67,-18,31,88
-13,-2,-15,25,-8,-12,-16,8
-23,-18,-4,3,-6,-16,-12,-49
-32,-15,-27,-10,73,15,-41,-64
-34,-14,-20,-49,-128,-15,21,-38
-37,-15,-3,52,127,36,36,-41
55,52,23,-46,-47,4,27,51
-13,-32,-11,18,-128,20,86,-81
9,10,1,32,37,63,-55,30
49,30,71,-20,49,-73,-51,62
-16,5,-6,-3,81,0,-6,-28
-42,-38,-13,-22,8,6,0,-70
-14,-14,-73,-100,127,-28,-53,-67
-61,2,22,-58,-128,-65,33,-50
33,24,50,111,-128,91,89,-45
52,40,127,23,-42,-23,-48,77
-22,-29,-74,-36,-10,-17,-9,52
-20,-6,-63,-60,-20,34,-5,-23
-31,-22,-43,-32,-54,-45,-18,-21
42,18,127,19,7,-42,-1,-79
-26,-24,-27,-40,-64,22,97,54
5,-22,-45,2,-31,13,-28,-6
-6,9,-43,-19,19,-36,-73,-33
33,0,15,7,-12,68,21,127
50,72,34,18,11,-54,-44,50
23,-11,-16,-44,-23,-10,8,-25
-84,3,-77,29,-45,-73,46,-65
-69,-61,53,27,127,22,22,-128
96,64,46,35,-15,38,-52,79
-15,6,-40,34,-2,-29,-5,72
37,-5,60,-15,12,7,29,56
-24,-46,-49,-45,-46,-37,-51,-111
0,2,21,46,127,81,23,8
-10,12,49,-2,-84,0,7,12
-26,-23,-128,-128,77,-86,-18,-65
-22,28,127,127,-51,127,47,6
29,6,-83,-29,96,-5,-17,2
9,-5,-40,-16,58,27,13,76
-10,-29,-83,-48,70,44,-38,-34
-19,-6,118,-16,-128,-128,14,-12
-36,10,-12,-42,-24,-18,-21,-91
15,87,90,20,28,27,72,-27
-27,-80,-63,-38,95,-13,-18,18
-11,-21,-17,-29,-128,-29,71,97
127,99,105,88,127,44,-128,127
16,-27,-74,-24,-26,-84,-24,62
-64,-54,41,-15,-49,-17,5,-87
-39,-9,-6,1,54,-7,27,-112
16,-16,-79,-108,-122,-32,4,55
47,69,51,86,100,3,-4,107
-18,28,30,17,-47,0,-10,-12
-32,-33,-4,-7,10,14,-2,-85
42,-8,-32,-4,44,-26,-31,54
-30,-9,0,10,-15,-6,-42,-21
11,5,6,-26,-119,-14,6,10
-18,11,-36,-12,58,127,8,-27
-13,-20,-14,-46,-4,-116,-41,-3
-12,34,68,69,127,3,10,-36
4,22,127,127,-108,58,59,-67
59,0,-17,14,65,31,15,127
-23,0,-31,-37,2,-28,-41,-50
-20,-28,-24,-28,36,18,30,1
-42,-34,-12,-80,127,1,-15,-53
5,-63,-80,-54,-128,-16,-22,5
40,50,-56,24,-76,-24,-5,85
-55,38,127,-25,27,26,93,-128
95,13,-7,15,110,-2,-75,127
61,-12,-40,-27,-13,21,-13,127
-49,39,49,-35,-15,-12,-9,-73
-77,-6,-17,24,14,13,15,-114
-7,-13,0,-20,-16,-37,20,-108
88,32,-105,-33,127,-22,-9,127
-47,-54,-50,4,-128,41,127,-128
91,90,127,56,127,-14,-7,105
58,3,-71,-17,4,-42,-68,127
-6,-41,-65,-32,-25,-34,-17,16
-39,-38,-33,-5,-4,28,14,-39
-30,6,-27,2,-6,-20,-23,-23
-40,-24,-36,-15,71,58,61,-20
-8,-6,72,20,-55,-59,26,-60
25,25,-128,-24,-128,-16,-22,-30
31,18,127,111,-39,39,8,122
-15,-12,-65,-38,-29,-22,-32,9
-6,-9,-6,-30,35,8,12,-6
-26,-9,6,-40,59,-9,-29,-33
-27,-55,-65,-85,-56,-12,-9,-4
-68,10,-57,-21,74,-77,-35,-128
127,98,127,127,-128,125,127,58
99,8,14,15,9,-11,-8,127
-39,-25,-74,-66,4,-15,-32,-116
-62,-35,-30,-43,7,29,-13,-12
-46,-46,12,-34,-34,-115,-14,-128
-23,1,-19,-10,8,-24,22,-55
-41,-42,-37,-13,102,30,-74,-75
35,15,30,-116,-128,-88,79,127
67,33,70,127,43,47,-54,91
-45,-3,-51,-6,22,13,-22,-89
11,-9,-11,-17,-6,-54,40,39
9,19,-32,2,25,-20,3,14
-17,-29,11,-16,-109,9,7,35
-1,2,4,-24,22,-56,-3,14
-28,-4,12,8,-10,4,-3,-47
-53,-10,21,-9,-30,35,59,-107
38,9,2,23,29,38,-35,73
35,-32,8,13,-76,-28,-25,127
-34,-19,-14,-20,52,-14,-13,-12
-4,-17,-69,-81,-128,-20,13,-11
6,-9,-82,66,41,3,39,-27
-20,31,127,44,123,39,-11,-64
44,16,-8,-18,56,14,-19,52
-73,-21,-78,-128,127,-81,-53,-5
23,-29,-41,123,70,61,56,-128
87,64,126,127,123,30,42,127
-30,-43,-1,-26,-1,-12,-18,-7
-17,8,3,-28,15,4,12,-83
-35,9,-6,-71,37,25,-67,-1
-81,-44,-88,-105,-128,-98,12,-128
105,69,127,127,127,95,81,127
105,48,-107,4,3,3,-38,115
-4,2,14,-26,3,58,-30,-109
-21,-93,-26,-11,-5,-43,-24,34
-41,5,-49,-25,-128,-5,14,-72
-9,54,9,-8,97,49,30,-25
-42,-34,-13,-17,26,-26,83,13
-6,9,13,29,-35,-23,-92,70
-36,12,-4,3,-128,-13,-33,-103
49,-8,-44,51,32,127,127,60
77,20,35,3,-2,-52,-8,127
-29,-5,57,-23,-32,-7,-83,-33
-58,-41,-12,-38,4,-5,8,-91
-11,0,-52,-33,-99,36,-21,66
25,-2,-17,-8,54,-75,-7,-59
1,40,121,-1,-73,-12,76,-24
57,14,-5,68,127,70,36,127
1,-28,-45,-22,38,-49,-49,12
-17,25,-3,-7,0,-1,-35,-25
-11,-15,-8,-38,-35,-15,-73,-70
-47,-31,7,-64,127,12,-12,-36
-53,-38,-128,23,-66,31,49,-101
108,60,127,127,-94,59,71,127
24,5,-46,-44,38,1,8,47
-20,-2,-10,1,-47,67,3,-19
-15,12,-46,-42,7,-91,-19,-23
-3,-67,-5,-31,67,-28,-2,-12
-9,22,-17,-20,-59,23,41,-34
-27,15,39,-62,11,39,-43,-22
-21,-59,1,-128,-128,-128,-23,16
91,42,-35,127,83,127,69,119
23,2,20,7,54,43,4,-30
-7,6,7,-40,21,39,-26,-26
9,13,10,-45,-11,-77,-35,47
-63,-32,-25,-24,-12,-13,20,33
-86,-63,-120,-94,70,0,-25,-99
41,16,114,72,-119,-1,53,-16
127,53,9,43,41,4,-32,127
46,12,-14,-2,-42,-9,2,69
-12,-4,23,4,14,12,32,-23
-48,-12,-29,-17,8,30,-17,-37
-46,-52,-24,-21,-65,8,-18,-41
36,30,-23,-36,-10,-49,-13,-15
-30,-22,-18,66,-62,9,15,-71
-6,-4,-35,54,56,89,22,59
-8,36,98,4,6,-46,-51,-29
25,16,5,-11,-3,31,61,-65
12,18,-26,-55,-128,-118,-128,-8
-5,-31,-30,32,127,5,9,24
-33,-3,-36,-28,127,27,-1,-52
10,14,127,38,-128,7,73,-42
-27,-27,-9,40,33,49,45,77
-29,-20,-21,-54,-57,-74,-62,-26
27,-7,12,-14,62,-40,2,-42
28,-29,9,-16,45,-41,-38,57
-17,22,-24,-56,-128,-4,31,-10
-56,-62,42,-87,58,-58,-67,-128
39,21,55,127,127,127,84,73
54,76,74,-20,-4,32,14,103
1,16,-102,-48,14,-56,-7,-43
-81,-55,127,-80,-63,-7,-72,-96
-14,5,47,41,70,-97,-40,62
-11,-13,-128,64,32,11,54,-74
-2,-13,12,-34,-47,-51,-7,-10
-31,-11,11,-5,-45,26,81,37
-2,-17,-32,17,34,54,-20,-26
83,70,51,2,2,-73,-128,61
55,22,29,-12,-44,71,53,83
-11,-23,-34,23,31,-73,10,16
-26,-8,56,6,-30,17,40,-81
-11,24,-1,17,54,35,15,-113
8,-27,-107,-73,88,-31,-62,47
-9,-12,68,37,-128,-6,13,34
-39,19,30,30,39,32,22,-48
15,28,-26,-52,-14,-20,-22,-22
-18,-24,10,10,20,-24,-50,-39
-1,-33,-43,-82,-128,-37,7,-24
25,23,21,77,-7,46,32,-83
61,64,100,35,-58,20,38,127
-12,-33,-67,-38,26,-18,-32,10
-37,-22,-29,-44,58,-1,-15,-69
-26,-39,-91,-86,-128,-128,12,-12
4,19,-3,50,59,20,-21,34
-22,-9,23,-6,31,-9,-47,-46
8,-21,-87,-33,-128,-21,-11,-46
10,-17,30,-36,14,-30,74,-5
10,41,127,61,14,25,15,54
7,36,-28,18,46,41,-1,-16
9,8,-70,-11,-17,-27,-12,46
-39,-23,-42,-39,-11,25,-57,-34
-41,-21,-62,-18,-40,20,56,-128
57,25,24,8,29,-128,-102,53
-16,2,22,28,0,28,14,28
-35,-19,-17,-4,5,-33,-17,-40
-25,-64,-85,-60,-15,-58,-56,-9
-14,-4,-19,94,127,69,48,-116
62,34,120,-25,0,0,-21,127
16,53,-2,74,127,59,-11,-58
15,14,-108,-25,12,-28,2,5
-19,-27,114,64,127,127,127,-20
-4,-32,-33,-34,14,15,-62,33
-17,6,78,-84,52,-95,-75,-82
0,25,-61,113,127,83,33,55
-28,9,119,-18,-128,-69,3,-61
22,12,-51,-19,-52,-15,23,68
19,-20,3,33,127,41,4,49
-24,-2,-73,-66,27,-45,-53,-20
-48,-50,-15,84,103,44,0,-52
22,71,127,-4,15,54,48,-59
-35,-37,-119,-55,-25,-53,3,18
49,-29,-19,-8,16,21,-19,0
-56,-30,-76,-14,-67,18,19,-59
24,41,8,100,127,-18,47,10
43,35,51,17,21,-34,-64,82
-1,-25,-32,-11,-2,25,-13,4
-57,-60,-39,7,4,50,19,-72
-11,-5,21,-8,5,-45,-5,-75
36,38,74,-24,-51,-46,-41,127
-48,15,-17,3,34,22,14,-56
-23,-42,15,27,-44,62,-2,-39
-14,-23,-28,-30,-24,-40,-43,-72
-42,-15,-128,40,127,55,77,-128
84,77,127,17,9,31,15,120
45,28,-36,-11,-39,-37,-37,127
-29,2,8,-24,127,80,-32,-75
-58,-39,-77,-57,-128,-76,-21,-128
-21,-15,2,-57,-128,-46,18,-3
15,-35,1,94,89,58,54,127
-22,-33,-9,31,21,33,28,-128
36,11,-17,-33,56,68,24,101
7,17,-25,-32,-22,-55,-54,62
27,22,127,-70,-128,-63,-46,-5
6,2,-30,5,-4,-19,-24,-1
-37,13,-59,18,78,19,14,-67
-39,-45,61,19,10,34,72,-90
-22,-38,7,-69,20,-32,-128,-7
5,1,-49,56,-128,-73,34,12
78,72,123,9,43,-15,16,20
-8,-13,-26,-40,-72,-33,-26,80
14,-1,-39,-17,127,59,21,48
-11,-41,-22,13,-97,6,36,52
-11,19,-10,42,-50,-6,4,-6
-17,-27,-7,-8,-5,-7,4,-33
-30,37,43,18,18,6,1,-57
-98,-72,-36,-87,-43,-50,-47,-112
22,23,-20,125,-23,123,127,-102
93,93,127,-24,9,-69,-92,127
79,45,-4,44,127,34,-19,-25
-42,-25,-65,-18,-7,-17,16,59
-45,-55,3,-40,25,-8,2,-68
-23,-68,-72,-21,-72,5,-14,-32
-20,-16,-65,0,-128,-38,-1,29
-21,30,49,-60,51,-17,-44,-68
-49,-14,-11,30,127,34,127,-104
80,5,-8,73,-8,-49,-93,127
11,1,30,-24,-79,-100,-68,77
1,15,-6,-23,81,2,-10,-36
-12,-35,-103,-34,9,6,8,30
-60,-1,43,-19,56,24,20,-98
43,-15,87,-128,-128,-86,-27,80
42,68,103,127,127,1,68,127
13,17,28,69,-60,43,34,25
-2,7,23,-2,-11,-4,-21,-20
-1,-5,28,-29,-13,-8,-7,-8
-28,-54,-20,-32,-7,-14,2,-38
-4,-20,-67,-26,-9,12,-39,58
-77,-43,12,-3,127,73,24,-112
72,20,10,3,-128,-25,92,95
18,30,101,42,64,12,-66,-10
-54,6,-83,-18,1,-17,-40,-124
6,-8,71,-11,-18,-8,2,-39
49,19,-16,10,-37,-15,0,118
-6,-9,-1,-8,-25,-19,-3,8
-36,-6,-47,-15,-10,5,-11,-91
-54,-59,-49,-78,123,-18,32,-85
-65,-5,-32,31,-128,-2,-1,-76
21,17,35,77,127,44,-43,15
107,13,-22,84,105,28,-47,107
54,30,-7,-12,-16,-14,-9,61
-56,9,-10,-32,2,42,-10,-73
-23,-38,-25,-43,-14,-82,22,-106
-15,-21,-34,-83,3,-36,26,35
-23,-3,-12,14,41,40,-26,38
-16,8,19,127,127,51,41,-28
-44,14,116,-33,-128,-26,14,-14
35,-36,1,57,116,17,-50,-126
47,33,-39,-11,-10,3,-2,127
-6,11,13,-14,1,-27,-29,-13
-17,-14,33,-19,-13,-6,22,-78
-24,-8,-21,12,127,19,48,14
-7,-4,-94,-11,-114,9,0,21
25,2,20,7,-4,30,3,-38
21,41,116,-32,-24,-65,-53,114
-9,4,96,43,0,-16,0,-49
-25,-39,-49,5,72,104,0,28
-9,-49,-34,-6,-84,-48,-18,-122
20,20,-31,-52,-83,66,69,127
40,15,-11,1,97,19,96,69
-24,-10,-46,7,-56,-30,-51,-128
10,6,2,-128,-128,-92,-77,-1
16,7,26,127,127,127,54,32
-8,20,-124,-45,-58,-5,-7,21
13,9,84,-32,-55,-21,12,65
-46,-7,76,-20,-5,-47,-31,-78
-5,-22,-40,-45,14,-45,-71,1
-10,-7,-28,-35,-14,-22,-20,-46
-77,-45,-108,-50,-128,1,-4,-97
21,36,6,37,65,46,64,-39
110,66,111,112,-4,-62,29,101
-2,-51,-21,-12,-23,-41,-18,49
-15,-21,-37,-27,30,25,-23,9
-27,20,-12,-17,9,28,-7,-57
-53,-6,-43,-19,20,-20,3,-128
-1,3,56,-13,4,2,-10,65
52,-28,-51,-13,7,-15,-14,9
44,7,91,21,22,81,93,89
-29,18,-83,2,-128,-70,67,-24
-2,28,14,4,2,-114,-128,-11
23,-13,23,-5,-2,-6,-15,48
8,-17,-3,-26,60,4,-7,8
-12,3,-71,-63,-128,-26,45,-9
-24,4,63,41,98,47,22,-51
-39,7,1,14,-48,41,-4,-50
-48,-68,-56,-98,127,32,-18,-128
10,-2,20,127,32,47,82,7
85,54,56,-13,8,-32,-39,127
6,24,28,-28,27,8,-30,2
-34,-27,-42,-29,28,57,-10,-60
-59,-66,-54,-61,115,-40,3,-78
-28,-24,-123,-128,-128,-128,-91,-29
42,60,33,127,127,113,33,-29
38,32,127,127,1,95,110,97
-37,-35,-80,-30,-45,-17,-16,-9
8,37,-20,-18,-17,-6,-38,-19
19,37,-54,-25,-18,-36,11,48
-34,-39,32,-28,-16,-2,-65,-78
-18,-15,-71,-8,-10,-3,-34,-50
18,22,44,5,5,-68,-49,-11
-31,-26,56,-15,-20,-17,26,58
-99,-37,-67,-77,127,127,-29,-31
1,-30,127,127,-128,-128,121,-128
127,75,87,59,116,-19,-6,127
18,36,8,-24,12,13,-21,7
-52,-25,-54,-42,-8,14,-12,-84
-70,-35,-29,-25,28,15,5,-45
-69,-54,-32,2,-98,8,7,-128
47,5,-6,6,-84,33,57,127
30,55,-23,-2,86,13,-23,35
-42,-27,14,12,-76,11,14,-8
-9,-30,-25,-17,48,-3,6,-38
42,0,5,13,-128,-14,6,50
10,14,-2,4,105,-3,-17,19
-30,-31,3,-13,-26,-16,-16,-32
-14,-2,-4,0,15,17,-1,9
-20,-10,-12,-31,30,-23,1,-34
-47,-26,-40,-17,-87,15,2,-80
-98,-46,-46,-86,127,-26,-17,-128
91,2,40,127,127,111,17,102
98,119,47,41,116,-38,-57,98
-10,0,-31,-48,14,-6,-17,-21
-50,-26,-42,-76,-5,33,6,-72
-33,-32,-16,-25,2,-36,-24,-18
-32,-36,-86,-8,-9,-23,-8,-16
-15,-23,15,-34,-66,7,8,-28
-39,-12,39,-105,127,-95,-93,-55
-79,-15,-128,38,127,127,127,-35
116,127,127,127,84,80,124,60
98,20,-59,-24,-26,-31,-58,127
21,-2,-70,-79,-24,-31,-42,-1
-35,-52,-86,-49,-5,-13,-17,-7
-38,-21,-11,-28,-20,8,7,-118
-41,-13,-14,-8,-1,4,-13,-29
-5,-7,-59,1,-20,8,17,-25
-16,14,127,2,-34,-37,-11,-24
-28,5,-87,10,-7,38,6,-20
3,-17,63,24,14,75,47,2
27,9,34,27,-3,-40,-44,46
36,53,21,-36,16,-58,-37,-25
22,-27,-3,5,-103,-25,-16,79
-14,36,-2,-4,7,-7,3,36
-30,-22,-20,-8,-54,54,39,-14
-24,-20,-30,-20,14,-60,-55,-36
-21,-18,23,-60,-35,-18,-10,-45
-25,-28,-62,120,127,80,63,9
1,39,93,-2,24,-11,-7,-120
-14,0,12,21,32,4,-9,-21
64,-23,-22,-48,-34,-43,-37,98
-10,14,-22,-30,-128,25,74,-22
-19,-5,-26,1,41,27,-22,78
45,-3,-29,-27,49,-39,-21,39
-1,-5,19,-12,-52,-42,-73,12
-36,-15,11,-28,30,-6,-14,-64
-54,-38,-104,14,127,127,11,-83
-71,-52,-3,9,-128,-3,82,-128
74,31,-71,85,127,-27,-4,127
89,52,127,18,38,-20,-77,107
1,0,62,1,-2,-29,-39,31
-31,-32,-79,-49,4,61,-2,-39
-62,-25,-72,-71,7,-85,14,-93
-12,-11,-51,71,-42,-34,-14,-83
8,19,-60,-31,2,-3,16,75
56,55,127,94,23,45,35,8
24,17,-41,-15,-10,79,18,121
-46,-55,-61,-34,100,-119,-16,-20
-76,-44,-74,-128,-70,-26,15,-101
108,99,31,127,-128,61,65,47
58,47,-1,63,7,9,-3,127
-17,-20,-20,-25,10,-5,-13,25
-29,-39,-51,-27,12,12,-5,-42
-55,-35,-72,-61,28,-17,-2,-67
-24,-51,102,0,116,-28,-10,-18
13,8,-41,-2,-128,1,38,0
0,12,-8,14,21,9,-11,15
20,6,-5,-10,-9,-10,-31,-32
6,1,-17,-17,0,-10,0,55
-1,-5,-17,5,-28,-28,-22,7
-26,-1,-8,-19,-9,23,16,-8
-58,-43,-7,-89,62,-53,-52,-91
-8,-12,-40,9,127,72,36,-83
87,79,66,127,114,111,65,127
92,66,127,-3,9,7,-11,101
-8,-29,-18,-50,-18,-17,-22,-44
-47,-17,-19,-35,-14,12,-7,-77
-46,-40,-28,-25,-2,-31,17,-33
-24,10,-16,-10,-97,-17,-47,-107
4,17,-11,6,33,6,-5,-73
22,1,-30,-40,-38,-2,21,127
-35,5,12,21,5,-57,40,-50
18,20,74,26,-93,10,12,10
45,-2,-49,15,63,-4,-64,71
17,-6,54,8,-4,-15,-25,-23
-44,-19,-57,-8,33,2,10,-67
-62,-89,-128,-128,-34,0,-29,-25
20,20,127,127,75,32,98,0
60,49,18,115,127,-15,-42,127
9,10,-24,-33,-40,-8,-27,-15
-8,6,-54,-29,3,-15,-11,50
-38,-6,-99,-38,-11,20,-10,-63
-61,-45,47,-15,13,-35,-3,-76
17,-14,-7,-45,-30,-4,-4,-58
53,7,-16,-31,9,-28,0,91
-26,-17,-15,-74,-128,-105,3,42
-21,10,127,107,127,58,-10,-128
98,44,87,47,69,-4,-36,127
-9,-33,-41,-51,-9,-17,-8,-20
9,28,-20,-45,-16,-20,-5,11
-17,-41,-41,-31,-26,-122,-57,-25
-49,-13,42,12,-9,1,15,-64
-34,-4,-43,-80,102,-47,24,-37
40,20,-12,-128,-36,-77,-88,36
33,30,6,127,95,127,104,43
-3,-12,-17,44,127,12,8,-72
-15,-7,127,5,-12,0,8,57
-40,-6,-36,-47,-2,-21,-20,-82
-31,-12,-24,-21,24,56,-37,51
-26,-22,-81,-76,1,-106,-40,-89
113,102,28,-3,-128,-40,-22,43
-18,-5,77,16,10,9,36,-9
12,-22,-57,-4,64,19,4,54
20,-6,3,42,-15,34,9,82
-26,-17,52,14,-17,-4,-47,-7
-37,11,-8,4,-20,8,25,-47
5,-14,-28,-18,20,-25,-11,-31
-25,-26,-20,-91,-37,61,-15,-101
-13,14,-5,127,127,16,44,3
1,9,-30,-24,-16,4,61,-12
16,18,7,5,19,7,-53,50
-6,-6,79,-4,-21,-25,-46,48
-18,2,-62,-17,-3,-10,-13,-64
-6,-2,-18,-42,-12,-6,-1,0
-20,-39,34,20,12,39,65,-12
-25,-53,-101,-102,-74,-46,-22,-7
19,43,86,127,127,53,-4,-85
22,66,-6,8,-128,50,45,-45
45,39,81,-4,39,-26,7,127
-19,-73,-89,-47,-2,-10,-33,17
-25,16,54,-22,-5,-10,18,-45
0,1,-8,14,-30,17,-27,-9
-42,-25,-48,-75,127,-35,-37,-80
-52,-30,-128,-47,-128,-60,-40,-65
-9,-38,122,127,127,98,77,-12
-52,-30,-128,-47,-128,-60,-40,-65
-9,-38,122,127,127,98,77,-12
77,43,-37,97,64,61,61,113
44,40,35,29,28,13,-1,89
