Channel_1,Channel_2,Channel_3,Channel_4,Channel_5,Channel_6,Channel_7,Channel_8
-7,-10,-18,5,3,3,0,-1
-7,46,0,-54,-18,1,9,14
5,-73,9,33,26,28,5,-6
42,-102,44,30,8,6,12,26
-35,127,-97,-29,-36,-26,-43,-35
0,-55,-24,-21,0,-7,-4,-17
4,46,90,-4,-5,3,19,23
31,-104,-41,-3,2,7,1,-11
-29,-94,-57,-6,3,-2,-9,-6
3,-19,-4,-37,-28,-7,0,8
-2,-62,32,32,23,1,-7,-13
0,113,41,24,-12,10,14,9
-4,-16,-57,-31,-17,-19,-14,-9
-21,-81,32,6,36,-2,-5,-9
-1,28,45,35,-9,-15,5,6
10,118,-9,-24,67,7,-1,7
-6,-61,-23,36,-4,-7,-5,-19
45,127,48,33,-13,8,14,9
-10,-56,-23,-26,-11,-14,-18,-17
-9,49,-15,-24,-10,-3,-17,-17
-42,-54,-32,-33,2,2,-8,-2
-13,127,127,38,38,14,10,-8
33,-128,5,33,29,19,18,4
-46,-128,-101,-73,-49,-29,-30,26
31,127,81,24,67,7,35,-35
15,21,-7,-18,-16,-19,-8,14
8,35,-6,5,-42,-1,7,36
-14,6,41,-3,-6,8,4,-4
13,-69,30,54,127,42,17,17
-37,21,-59,-56,-78,-26,-25,-25
-2,-128,-71,-68,-21,-9,-9,-21
37,127,50,99,15,9,9,37
-23,-100,-40,3,-31,5,-9,-25
-5,-106,-82,-4,40,7,0,14
-7,-10,23,4,-21,-12,1,2
-36,-90,19,-78,-35,-25,-18,-14
-18,50,-68,-31,25,-1,7,6
26,-38,70,-21,-44,11,3,5
35,-97,29,1,4,11,11,61
-33,-128,-103,-22,-19,-30,-29,-32
-30,26,-43,-21,-21,2,2,3
38,62,20,30,-23,18,19,-1
-11,40,9,1,23,-10,-2,-1
-44,-128,19,-6,13,8,-3,-36
62,127,127,43,38,9,25,41
43,-98,-128,-4,-11,-27,-24,-1
-29,21,-2,-59,-128,-38,-21,-13
-13,-107,20,15,44,21,9,20
6,-7,40,127,127,33,7,-44
5,-40,-4,59,20,-3,-3,0
9,38,-24,-84,14,10,18,50
-1,-21,-13,-34,-55,-17,-8,-19
-3,-7,8,53,77,12,7,38
-10,-31,-49,-21,-14,-2,-7,-17
-1,84,125,45,111,4,6,-6
-20,-128,-97,2,-82,-14,-14,-27
-17,-29,97,-42,-85,-23,-10,3
42,85,17,-12,38,7,1,5
-15,-34,-128,-7,-39,-7,-7,-7
-29,127,83,12,80,1,4,-4
72,-128,74,6,97,40,26,41
-49,108,-128,-11,-46,-48,-45,-49
-6,15,-3,-44,0,0,0,3
-4,5,16,22,19,3,5,-1
-5,-13,-6,-22,-28,-6,-2,-1
-13,-122,4,-13,-11,0,-2,7
-36,30,47,48,36,11,6,4
43,58,96,30,27,8,6,-9
-32,5,-128,-52,-16,-30,-43,-42
25,33,32,0,-79,-3,6,19
-22,-30,-11,-7,-1,-7,-4,-12
-9,-9,12,-5,-9,-16,-3,2
-40,7,-9,6,24,19,4,-4
11,12,24,10,12,4,15,15
10,127,112,30,13,5,7,-19
28,55,3,-3,-40,-17,-4,57
-27,-11,-116,-80,33,-33,-37,-67
5,-21,-55,29,0,16,12,38
-13,-28,101,40,47,10,-1,-6
-7,35,80,69,42,12,8,6
23,127,92,-50,-48,3,-2,-12
55,-128,60,-66,-72,-8,-3,8
-38,-65,-128,10,49,-26,-35,-39
-2,15,-20,16,-20,-2,10,11
-5,7,64,3,-24,15,6,-14
-1,18,41,53,-29,7,9,3
-14,-61,-10,-13,6,3,3,-1
11,-19,12,-6,-29,-4,1,10
12,121,-84,-4,102,11,0,7
4,80,33,29,-42,-28,-23,-15
-6,1,40,1,40,-2,-2,-2
0,-29,1,-5,-36,10,-2,1
4,-20,0,-1,16,-11,19,20
-14,-39,6,12,-19,-12,-2,13
-8,-57,23,20,-12,13,12,-6
29,-77,5,4,43,-5,-4,7
12,127,-20,-36,-62,-22,-28,-31
-48,-74,-35,-35,-42,-17,-14,-17
4,-12,-7,-5,13,6,8,25
2,24,29,-15,-47,18,-5,-7
31,59,18,56,15,-9,1,6
-16,-128,1,0,7,4,-1,5
9,55,-19,-12,-7,-5,-5,10
-12,21,-21,-7,35,9,5,13
5,30,14,-27,-33,-9,-1,-5
19,6,-11,-16,-20,-3,-6,-3
-22,52,17,22,18,7,-9,-31
-31,-38,-4,54,35,3,8,5
127,-74,98,-21,-19,27,33,67
-25,12,-96,-83,-59,-46,-51,-40
-25,-38,-33,-23,-46,-10,-10,-21
-5,19,-20,27,30,3,-1,14
-30,127,21,-48,8,3,-5,-25
67,-11,127,61,91,18,18,33
-27,2,-128,-83,-128,-47,-30,-18
-7,-21,-40,64,-128,18,9,-14
-13,-46,30,-9,27,-1,-3,-1
-42,-128,48,-12,12,20,7,8
54,127,-26,68,76,-1,17,11
-9,89,50,-69,5,-39,-29,-16
-12,-125,-41,5,-45,4,8,1
29,127,72,127,96,28,19,16
-37,-128,-38,-41,-15,-15,-28,-27
-5,-9,-25,-43,-10,-1,3,0
-8,6,3,7,-5,-11,-4,-5
-6,-19,-16,-59,-32,-12,-9,-3
-7,11,-13,18,46,11,19,17
-18,-28,11,35,-95,-10,12,-8
14,18,-3,16,71,24,0,3
2,-3,-12,-9,5,-5,-3,3
-13,-82,-3,-13,-12,-9,-2,1
-33,-19,-3,-17,62,7,-4,-10
21,75,51,-50,-116,-23,2,4
19,-66,-37,30,23,7,-5,-8
-19,-19,-37,17,36,-8,-25,-23
-36,-35,-18,-36,-31,-17,-9,-26
28,-128,73,10,20,19,20,23
-18,-11,-50,-5,32,-11,-11,-7
-19,26,-24,-25,-103,-23,-10,-12
-19,-88,55,14,23,22,19,7
26,100,40,31,35,7,7,11
-8,9,-61,-42,-57,-15,-15,-18
-1,22,-11,-1,-16,-9,-10,-6
-7,6,24,-9,-28,-10,-5,-7
-48,-110,-44,24,-31,-8,-1,0
6,127,68,-104,7,11,15,17
55,71,110,5,-42,-21,-9,1
-6,-95,-92,-7,76,-3,-21,-24
-8,-15,12,62,76,-5,-8,-22
9,24,-27,3,-13,4,8,33
-7,-55,-50,4,39,8,2,3
-8,50,-19,-77,-49,-12,-1,14
0,65,14,29,12,4,5,-10
-9,-101,-10,40,23,3,-3,-6
-3,-4,11,-42,1,-3,0,9
8,120,4,70,-8,14,17,9
14,-26,-46,-12,33,2,0,15
-17,-29,-46,-74,-94,-22,-9,-10
-14,-7,14,90,55,25,5,-4
-35,-5,87,65,67,1,6,1
88,-6,127,22,-33,8,17,28
-9,-88,-128,-27,-8,-22,-33,-29
-37,-56,-71,-53,-17,-26,-19,-20
7,37,75,-3,8,0,1,6
-9,-11,10,26,16,4,2,-1
-10,-10,3,31,51,18,6,4
-2,-12,-14,20,27,-6,-7,-5
6,12,37,-32,25,17,17,18
3,-18,33,42,-37,10,10,4
-5,-34,-42,20,16,-10,-9,-6
1,-46,-14,-28,1,-2,-3,-2
-9,29,-12,-28,14,3,-1,0
10,29,-3,-3,-7,-10,1,-13
11,-128,4,56,81,14,12,9
-20,56,-37,-20,-2,-9,-4,14
16,127,46,-25,-88,-8,-14,-12
9,1,17,37,13,-8,-7,3
-15,15,-13,8,9,-3,10,5
-7,-40,-40,-4,-26,-9,-8,-2
0,-18,-9,36,55,8,1,-2
-23,-82,3,-8,-12,6,2,-3
19,127,102,47,-100,12,30,32
40,-93,58,74,82,23,13,0
-22,-128,-128,-128,-72,-47,-39,-23
-13,23,-52,-17,-21,-11,-17,-17
-7,34,22,22,38,6,2,1
-25,-34,-27,-85,-22,-9,-3,-5
3,7,34,124,79,31,22,14
3,-72,18,-6,10,-6,-10,-19
20,127,52,13,7,1,6,17
-15,16,-41,35,117,13,-8,-28
5,-31,-11,-8,-43,-3,-1,-1
7,-25,-6,-21,3,1,4,21
-12,-45,-7,-22,-38,13,5,-1
-8,-69,-64,0,-6,9,-2,-9
-3,19,8,20,-23,-9,-5,-4
-20,9,8,-24,2,1,4,3
12,-33,21,25,18,1,10,11
6,51,-70,-44,-54,-5,-14,-13
-5,-19,-26,6,-21,-22,-10,-12
-16,-17,-1,-17,64,-2,-6,-6
-40,-74,2,12,-70,-4,4,-12
24,36,4,6,-28,10,7,16
19,127,-24,33,41,-14,-16,-30
-4,-87,24,-5,14,-12,-5,6
5,19,-11,22,-128,-11,1,6
-14,42,-6,50,104,18,6,-27
-4,3,-8,-37,2,-5,-1,-4
9,37,51,5,-5,-6,3,6
-10,-56,28,15,3,5,6,9
11,-128,-79,-69,-67,-22,-25,-15
-20,-40,14,14,-34,-3,7,-13
18,2,-41,-18,8,-1,4,9
5,61,-64,0,-36,-12,-6,27
-6,12,87,21,13,2,-3,-4
-23,-9,-66,13,15,10,20,4
27,115,127,-50,20,22,14,17
2,-59,-62,10,-61,-30,-17,-8
-12,28,-26,18,12,-4,-5,-9
-2,-94,7,32,20,-1,-1,1
-26,-68,-30,-35,-5,-3,-13,-9
-11,-105,3,2,-3,3,0,-4
25,127,8,6,29,9,3,9
-11,33,28,71,59,13,-6,-18
-4,5,-18,-55,13,-11,-2,-5
0,0,-13,3,-69,-6,1,10
-19,64,13,-47,18,-9,-1,-3
5,-94,4,2,-52,-10,-5,2
-10,4,-41,-32,7,-4,-9,-11
-59,-11,7,24,-34,-3,4,-6
29,-5,56,-56,14,31,24,8
8,110,-128,-16,-39,-22,-30,-37
-13,-16,-12,-12,-5,-8,-13,-14
-11,-18,-16,-36,10,-6,-5,-2
-9,-54,2,-14,-24,3,-2,6
8,-3,27,-1,3,-3,-3,9
-1,100,13,30,69,0,-4,-21
11,71,-18,-21,-18,4,-4,24
-16,58,0,50,47,8,1,-7
2,-128,35,13,12,11,0,-4
-22,-34,-66,-37,-13,-26,-17,-13
7,35,-13,16,-1,1,1,7
5,87,13,-11,-22,-10,-10,-11
-37,-128,-6,3,-4,10,13,1
78,127,94,12,74,27,24,37
-12,63,-77,-6,-53,-28,-28,-26
-10,-2,-15,-1,-15,-10,-8,-3
-22,-17,1,-16,3,-3,0,-4
12,-49,22,-51,-18,-23,-15,-6
2,28,18,61,11,28,25,16
4,4,-7,31,-39,6,-1,2
-1,-25,-36,-34,8,-19,-23,-16
-14,-30,22,46,-64,-1,-2,-17
-4,-12,-10,-50,42,-5,-6,-13
1,-111,-36,45,26,-2,-1,13
-4,-3,44,-44,-30,12,7,1
-12,103,30,23,30,-13,-7,-14
4,-38,-80,-38,-103,-4,4,15
-2,-15,53,-9,34,-4,-4,-9
9,25,4,-15,-31,0,-2,6
-17,31,10,5,24,-4,-2,-9
24,-34,-2,8,-4,-15,-10,1
-24,-53,-7,27,3,2,5,1
14,127,51,-80,-32,0,8,0
85,-128,127,39,42,16,22,38
-54,-100,-128,-84,-38,-42,-59,-64
-41,2,3,-33,-64,-12,-9,-15
2,-3,-10,-26,0,-13,4,0
1,36,63,-18,-78,-12,3,6
-18,-38,31,95,70,14,3,1
6,24,-10,20,-12,9,7,-4
-2,88,26,-60,2,-2,-4,-19
-12,-4,-88,-20,-26,-12,-2,0
18,-11,51,25,38,6,3,19
-1,-38,4,20,-61,-8,-3,1
0,-20,-34,-38,-46,-27,-17,-5
-19,3,-14,43,93,21,-1,-18
23,18,2,21,83,11,12,5
20,-109,-15,13,51,10,4,33
13,51,-14,13,-36,-5,-4,-4
-26,-74,-74,-85,-49,-29,-22,-13
21,103,29,17,115,23,9,-3
-15,24,12,-15,-68,-22,-11,-7
-37,-128,-53,26,91,12,-1,-13
4,127,15,-23,1,12,17,22
22,92,-55,-64,-32,-27,-13,0
-11,-19,127,52,-46,-2,-4,-19
-10,-128,2,39,16,8,1,3
-15,-14,-6,-50,4,-6,-6,-8
-1,49,7,-14,6,-5,-9,0
-4,-39,-21,0,21,6,4,1
14,-4,-7,-37,-45,-8,-6,-1
-2,-39,10,2,-21,0,-5,-19
-26,22,22,15,-6,-5,3,6
37,39,1,-4,20,12,8,9
8,23,-38,-9,-36,-13,-11,-25
-9,-32,0,18,-4,0,-4,4
5,-10,-32,-102,-4,12,-1,10
-3,-49,29,20,-13,-16,2,-10
-50,29,6,-43,-33,-5,-9,-10
-9,-47,-2,-28,-3,-24,-17,-11
38,127,8,-15,-128,-13,2,2
6,-128,13,30,48,23,9,1
-11,-54,-20,54,34,-5,-1,2
-38,-46,-14,-17,1,12,11,-2
-7,-27,58,13,-16,4,2,-1
40,127,-30,-27,-46,-29,-28,-19
23,-10,-5,-17,-15,-6,-1,34
-10,-19,-23,-50,-26,-9,-8,-4
-50,-128,26,-30,42,7,9,-6
18,127,127,64,-16,15,15,-8
23,56,-98,-38,-54,-21,-25,-20
-30,-73,-56,13,-11,-25,-24,-17
-13,1,17,-110,-45,-15,-1,2
-18,-5,27,49,75,18,9,0
19,33,45,41,24,5,7,8
9,-4,-4,-54,-27,-12,-6,0
-14,-12,5,-15,25,16,-7,-19
-23,-4,1,62,0,12,11,-2
38,25,11,41,32,6,3,22
-9,-71,-55,-50,-1,-25,-25,-23
-7,-9,-33,4,-27,2,5,3
0,-21,-19,7,16,2,-1,0
-15,-46,-10,-4,25,2,-7,-9
7,4,15,9,23,8,8,0
-2,-35,2,-11,1,-9,-4,-3
-1,111,-88,-93,-76,-21,-20,-6
-14,11,-15,17,-86,-11,-4,-9
6,-112,91,21,-13,-7,0,22
-49,29,15,54,116,26,5,-19
13,85,-26,19,-8,-1,-2,0
22,-26,19,-34,-67,-9,-2,0
-3,-19,-28,0,-1,-6,-1,6
-19,-47,-5,37,18,11,2,-3
2,57,19,-29,6,-9,-2,-5
31,59,35,30,21,4,7,8
1,-56,-8,-20,-18,-10,-7,6
-49,127,14,-21,-52,4,7,-21
17,-128,54,22,45,16,16,3
-8,37,-118,-34,-68,-20,-19,-21
11,118,43,23,40,-3,-8,2
-14,-3,3,-25,-21,-7,-4,1
-32,22,2,-6,-45,-4,-10,-18
-3,7,27,53,69,14,3,-22
22,-41,-32,-6,4,2,6,16
10,-25,97,43,18,11,8,26
-5,37,32,16,-8,0,-4,-4
-2,19,-73,-17,-10,-18,-15,-7
-23,-128,-34,2,86,10,4,-1
44,93,72,30,20,8,5,-4
2,91,30,-14,-53,-9,-3,-4
-8,-29,-70,-4,-106,-8,-13,-18
-12,-22,53,7,4,-4,-6,-6
-23,-68,-25,-16,27,-10,-9,-8
3,-128,-7,-50,-5,-9,-1,2
6,103,34,38,35,18,11,9
-23,43,-57,11,-98,-23,-22,-26
-9,-31,-37,-24,34,1,-1,-7
9,-13,-1,24,36,0,-5,2
-3,-7,24,-36,-11,0,8,8
-9,46,38,30,3,3,2,13
42,-18,35,13,41,4,2,-4
-21,-79,-48,-26,-23,-17,-7,-12
-34,-66,-27,-22,-38,-16,-19,2
0,-64,-31,20,68,18,3,-9
-5,118,51,-3,-7,-12,-14,-18
2,48,40,11,-56,1,10,7
13,-17,-33,3,-22,2,7,5
-38,-128,-23,-24,20,1,4,-20
3,94,36,-8,-73,-17,-9,-11
26,-6,30,58,68,7,2,27
-6,-117,-20,-73,-20,-14,-9,-1
-12,-30,-16,20,-9,-2,3,-8
9,75,-10,68,15,11,9,-4
-25,2,14,-59,-8,-1,-2,-4
-15,-128,-23,13,26,-12,-2,1
35,127,71,68,-24,30,25,12
-9,88,-109,-28,-16,-19,-28,-25
6,16,61,17,3,-7,-10,-3
-9,-22,19,25,23,10,1,1
-3,10,9,4,-18,-10,-1,0
-10,-31,2,-32,75,5,3,15
-38,46,25,16,-57,12,15,-26
25,-128,26,-38,3,-8,0,8
10,78,-59,-73,-76,-30,-17,-1
9,7,-13,100,66,25,15,16
-15,-10,64,-2,18,-5,-4,-9
-31,20,9,-4,26,8,-3,-12
17,101,36,-49,17,-10,5,18
33,-59,70,35,-38,20,10,16
-42,-91,-91,47,9,-26,-37,-40
-5,-22,-16,-46,20,-7,-7,14
-10,-31,0,1,6,9,8,-3
6,13,-6,-16,9,-2,-4,-7
15,18,6,-10,-44,3,5,4
-17,-65,3,28,9,-2,-1,-5
-12,41,37,-8,11,5,11,11
3,-66,-37,-18,-34,-11,-16,-12
33,37,-15,9,-6,-16,-8,-16
-22,5,-4,-9,-13,-8,-3,-13
-20,-128,-3,-12,5,1,-1,0
-3,127,32,-27,39,7,11,19
15,127,26,28,-88,-4,-3,-27
6,0,-33,-48,-33,-6,5,42
-13,-87,-41,-10,15,6,-11,-4
14,10,14,-21,-3,-2,5,6
-5,-37,3,35,33,5,3,0
-9,-32,-14,15,-27,-4,-4,-2
-21,-46,-11,-4,15,6,0,-9
4,48,-1,3,44,5,-1,-7
-8,-86,-44,-44,0,-17,-4,14
10,2,-2,75,33,28,7,-20
-3,-32,64,53,57,7,-2,-5
-5,-23,-116,-56,-65,-9,-6,-1
-29,-64,44,-10,15,2,1,-12
25,79,62,56,22,8,9,17
18,71,-35,5,45,-16,-21,-4
-33,-78,-51,-71,-128,-30,-12,-19
-8,-7,-4,18,0,-8,-6,-8
-19,-68,-55,-14,53,16,7,-1
8,127,79,17,20,-4,6,12
-11,-128,12,41,12,16,6,-12
43,127,-40,14,59,10,-1,-6
24,124,33,-51,-67,-21,-4,18
-23,45,24,14,-43,0,5,6
2,-128,24,-5,-10,-5,-5,-16
1,65,-84,-6,17,-9,-8,-7
-10,5,-6,-4,-23,3,-2,-10
-12,-56,-37,-69,3,-18,-7,-9
45,-7,63,123,100,26,21,23
16,127,19,47,56,3,-4,-10
-9,-13,-23,-47,-7,-10,1,3
-13,-35,22,9,74,15,-1,5
-21,-68,-2,-31,-49,-5,-6,-26
23,73,14,6,-33,7,10,16
-2,-31,-22,5,35,1,-7,-7
-3,-10,-45,-35,-24,-16,-13,-4
4,-35,2,34,-4,6,6,8
8,34,24,-18,-13,4,0,4
-9,-16,3,17,21,2,-1,-10
-10,-33,42,5,6,-8,-9,-8
70,66,-6,-34,5,-8,0,23
-14,-80,-61,28,-2,7,-8,-18
-50,-64,78,-2,34,-9,-13,-16
18,-48,9,55,-2,22,12,8
36,23,-45,-118,20,3,3,14
-8,79,-46,-19,17,-13,-15,-13
3,46,36,30,76,8,6,26
-12,-10,41,2,41,7,7,-1
0,-43,-13,24,1,-1,3,0
-27,-7,-7,-7,17,-6,-1,-11
26,7,20,3,24,3,3,6
4,18,-14,-19,-39,-15,-7,-6
5,4,2,6,7,2,-1,9
-11,-37,-1,-6,-21,5,6,-8
-8,-40,-5,0,-23,-7,3,7
1,-5,-26,-13,38,3,0,-10
-9,-8,-16,-3,-39,-1,0,3
18,6,19,-64,40,-8,5,23
-33,-49,12,97,10,4,-6,-21
17,-27,-7,34,37,19,9,10
31,-18,7,-6,-13,-8,-13,-5
-23,78,-40,-43,-52,-29,-21,-24
-2,-74,-45,-28,35,18,0,4
-19,-6,37,-1,31,6,8,-6
8,-14,-64,-60,-18,-28,-21,-16
-2,4,17,81,-45,0,-4,-4
-1,-14,-19,-76,-79,4,20,19
-5,39,20,32,31,14,10,14
-4,-11,23,-39,-1,-10,-9,-4
-37,-82,-30,0,-5,-13,-9,-13
8,45,23,1,5,6,4,1
40,-78,-3,1,7,-2,-1,11
0,63,-8,-21,-35,-10,-12,-22
-10,-2,-12,-10,-7,-7,-4,5
-14,-97,-9,19,2,4,3,1
4,63,12,5,12,10,11,8
18,65,38,-4,-1,-4,-3,-1
9,-8,-59,-28,-13,-17,-17,-23
11,17,3,0,-7,0,4,15
-2,0,7,7,-40,-6,-7,0
-13,-97,7,14,21,8,5,-7
9,61,23,19,-41,-1,-2,6
-39,-14,-3,-8,-20,-6,-6,-14
14,10,43,3,8,4,5,13
18,-1,-21,29,-25,1,3,2
-16,15,-46,9,69,0,-12,-14
-13,-20,-21,-6,-41,0,-5,-3
-5,-128,45,8,43,17,18,15
-8,-128,-24,20,-113,-4,4,-4
-7,62,-55,-9,-22,-13,-5,-8
17,31,-29,-9,27,3,-2,25
4,44,36,-26,25,7,4,3
-7,11,1,-29,29,1,2,-3
16,79,26,19,-19,-3,5,2
-13,-47,26,-18,-20,-21,-21,-14
-27,-22,-16,26,20,-14,-10,-13
33,-32,-8,-21,-7,7,5,19
-5,4,-23,40,65,24,11,-7
3,-5,27,-4,-16,-10,-3,1
-3,-36,-30,10,7,-4,-5,-3
-56,-128,28,15,-1,-1,4,-14
52,127,14,-23,-20,-11,-1,3
26,-34,-16,-21,8,-4,-6,33
-18,-38,-30,-22,-9,-8,-6,-8
-65,-128,33,19,12,2,2,-29
37,-14,54,53,-33,18,25,22
-14,31,-69,-24,-42,-19,-17,-17
7,48,-7,-14,17,-1,-9,-6
-21,-36,-43,-7,-64,-16,-10,-14
0,-126,12,50,73,23,14,14
15,127,31,-84,-9,4,4,1
-22,4,-14,-24,-13,-14,-14,-22
-14,14,-3,7,-9,-2,-1,2
58,-93,91,-50,-16,5,7,11
-2,39,-124,14,-128,-29,-13,5
-23,56,5,67,87,22,-1,-13
14,-54,-12,-115,-98,-15,-9,-2
-13,-35,-21,34,76,9,-7,-13
-4,16,-15,-7,20,-3,-1,1
-5,-4,10,-11,-26,-5,-5,-2
-11,-16,-22,-32,-89,-10,4,-5
4,-122,47,55,36,2,5,11
11,69,59,-7,-25,3,6,3
23,113,-35,-19,-23,-9,-10,-2
-18,-53,-71,-47,28,-20,-20,-12
2,-28,-8,3,-63,-25,-8,1
4,20,8,-12,60,23,10,8
-16,-32,-9,49,54,1,-7,-12
-14,-9,-1,-18,-40,2,-1,-5
-35,28,63,14,53,20,19,10
49,-78,22,-4,1,-4,2,18
-4,39,-89,-35,-38,-27,-22,0
3,5,11,9,-6,-8,1,2
-11,-14,4,-6,3,4,0,-4
8,35,19,24,14,4,-1,1
-13,-128,5,-12,-37,0,1,-2
16,127,20,-10,-15,-3,-12,-6
-21,-37,-7,-6,-8,-5,-14,-30
-17,15,15,8,1,-5,3,-9
-29,-124,-38,-31,-36,-14,-2,-2
4,-28,4,36,29,16,11,5
58,127,126,91,29,8,5,18
9,-128,-92,-78,27,-4,-10,-8
-25,-76,-86,-69,-45,-30,-29,-13
-8,-12,40,44,-68,-7,1,-10
8,28,36,-20,-128,15,12,-9
-1,34,-21,8,50,7,1,13
-2,27,-8,16,2,0,-2,-4
-18,67,72,-11,-23,-14,-2,-10
1,-65,20,-35,-55,-1,1,-2
4,-15,-55,19,106,10,-3,-2
-13,1,-13,-20,-24,5,1,4
-17,5,8,-22,-9,-5,-9,-1
16,12,-23,-5,-29,-10,-9,-3
-8,-22,-15,-2,28,4,1,-2
-4,-5,2,3,21,-9,-7,2
-16,6,-5,-14,-94,12,5,-14
-17,-49,-8,-23,41,-8,-11,-12
15,73,-5,-10,-58,1,17,19
-16,-54,-3,55,24,5,10,-1
7,-19,-11,-14,-17,-7,-3,14
-15,42,-13,-6,62,0,-7,-31
0,-27,-6,-2,-4,-7,2,10
-11,-10,-7,-30,32,-5,-8,-2
2,66,-15,28,-27,4,8,5
-17,21,61,27,50,19,12,4
28,-67,7,32,58,21,8,-12
-9,-10,-64,-16,-27,-17,-11,-2
-1,-2,-11,-13,-16,-10,-7,16
-15,-128,12,3,12,10,7,6
38,36,26,23,-5,9,13,16
5,127,-9,-27,-39,-16,-18,-18
-6,-21,-15,-9,-1,-10,-3,-2
-8,66,13,13,21,11,0,1
9,-99,10,0,-14,-2,0,-5
-4,-62,-15,-22,15,-7,-5,-2
-11,-13,-27,-12,-17,-7,-6,7
27,80,17,-14,19,-3,4,5
-19,70,60,-4,-64,-7,4,-4
41,-128,19,26,-27,14,9,13
-18,-11,-112,4,22,-13,-23,-17
-9,37,9,-28,-68,-11,-3,4
-8,39,12,42,71,2,4,-4
2,20,4,35,45,13,5,5
-24,-14,-18,-29,62,9,-1,-3
38,-10,24,-12,-12,-3,2,12
-17,-15,-89,-7,49,-16,-21,-18
1,-46,127,-5,-86,-4,15,0
16,105,37,-3,-20,8,7,6
-1,-49,-35,8,13,-4,-2,23
4,10,-21,-72,5,-9,-10,-2
-6,6,2,0,9,-6,-6,-9
0,-26,-13,-11,25,-1,-4,-4
-30,-36,8,-8,-11,-3,-2,-6
33,87,53,24,-6,2,6,-5
-10,-90,-118,-3,14,-9,-17,-24
1,0,-5,2,13,0,-3,16
-14,-34,-9,-42,-59,-8,-3,-5
-5,9,27,-6,-57,-17,-6,-7
-7,-92,16,90,57,22,6,-1
-23,-125,-6,8,3,2,-1,-9
-1,49,7,25,11,8,13,6
51,100,19,-14,-10,-9,-10,0
-15,-20,-51,-85,-11,-19,-14,-13
-9,-15,8,1,-49,-9,2,-2
0,-21,4,-35,27,8,6,2
3,-14,7,-9,-26,-3,-3,14
-29,-99,-86,-38,-47,-14,-12,-33
14,14,13,58,59,8,4,0
-5,-43,-10,9,31,9,7,20
-4,-30,21,5,10,-6,-2,-6
24,36,14,-40,-2,-6,1,8
2,32,-14,12,-18,0,-8,7
-9,-10,4,-14,-5,2,-5,-8
-23,-101,-30,33,53,4,8,0
10,24,37,-4,-34,15,14,9
40,118,-21,-36,-15,-20,-10,12
-16,-73,8,-38,-84,-18,-11,-15
-9,-20,-4,70,70,19,0,-9
-8,-27,-4,-63,-19,-16,-4,1
-6,-2,-16,15,-65,1,5,-10
-9,-69,48,59,70,16,12,4
11,22,-32,3,-43,-10,-8,7
1,57,-6,-51,20,-17,-16,-6
-10,-46,-13,-30,-78,-1,0,-1
6,-12,-6,58,20,1,-4,-5
-8,-7,17,39,23,10,6,-4
6,16,-21,-86,2,-6,1,-6
-18,-83,-17,-27,-17,-12,1,2
18,-128,29,-13,-14,-3,6,28
26,127,32,30,46,6,-3,-17
17,-21,-36,-12,8,-8,-12,6
-6,-36,4,0,-6,-17,-1,-2
-18,-31,12,28,38,17,6,1
0,94,15,8,39,15,10,2
27,-101,51,19,43,18,19,13
-12,-13,-49,-10,-30,-13,-23,-36
-21,51,-16,-54,-39,-16,-7,3
1,-32,-22,-12,-128,-4,7,6
17,124,-2,27,51,4,-5,-6
-6,16,-7,-1,-2,-3,0,14
-1,6,0,-15,-7,-5,-6,0
-11,-5,8,-20,19,-5,-6,0
-22,-59,-32,24,58,3,-9,-21
27,63,119,5,-48,-2,6,9
7,98,-6,-34,50,-3,-6,-3
1,-4,-31,4,-126,0,8,3
-4,-11,22,10,22,2,2,0
-9,-20,-23,-29,-15,-12,-12,-4
-2,-1,-1,13,0,-7,-2,-2
-3,-49,11,3,29,8,1,-2
-23,-4,-9,2,12,5,0,-4
46,115,26,-15,19,-9,-5,10
10,-27,-22,-24,-38,1,4,0
3,15,-56,35,41,6,-15,-18
-11,-3,9,4,-4,-6,-7,-9
-5,-3,-1,-12,-19,-8,-2,-4
-2,-7,6,-3,-7,-4,-5,1
-12,-31,7,17,37,11,0,-5
-31,-45,-15,2,10,0,2,-4
24,-54,41,14,2,11,10,19
8,48,-26,3,1,-6,-5,-17
22,45,-56,-5,18,-16,-15,23
-29,-26,11,-1,-5,-15,-11,0
-10,25,17,-24,-8,1,-3,-7
24,-11,6,-6,-12,-4,6,-5
36,88,35,21,47,18,22,24
-1,-128,-72,14,-52,-6,-6,-3
-20,28,-19,-11,-17,-9,-8,-8
-19,-32,28,-53,5,-13,-5,0
6,79,-4,51,-74,5,-3,-15
-6,3,0,2,31,-1,-6,-13
-6,-13,0,-19,-1,-5,-4,-1
-24,-69,-15,-10,-1,-17,-5,-7
-1,6,16,16,35,23,7,0
22,54,38,-18,-7,0,5,2
-8,-59,-7,3,15,1,-2,-8
-15,-42,-43,-26,-39,-28,-20,-10
-6,-7,-11,38,-60,3,1,2
-5,-7,50,23,-91,5,10,2
-10,-17,-15,-16,31,-3,-5,-5
-29,-55,14,-3,-48,2,-1,-6
15,109,12,6,36,-7,-5,-2
28,-19,36,-6,-34,-6,-1,0
-19,-103,-82,44,76,11,-9,-12
-6,19,-30,18,-3,-9,-8,-4
-20,-6,38,-44,-10,-4,8,7
-17,-32,-1,-2,36,6,-4,-8
9,-37,0,-12,-28,-11,-12,4
-35,-35,16,21,64,20,19,-11
-12,56,2,-5,-27,-2,-8,-17
20,25,-33,-16,24,2,-7,15
12,-51,-45,-3,-55,-1,10,2
5,2,19,24,0,-2,0,-12
-1,9,21,8,-22,-6,-4,-1
10,8,4,-17,31,-2,2,13
-30,-36,-8,-20,-32,-10,-13,-16
-53,-19,23,10,36,4,-1,7
21,-77,20,40,19,20,11,5
58,127,41,-11,-79,-13,-8,-49
2,-65,-96,-47,-34,-10,-14,22
-2,-36,-28,16,14,-11,-3,15
-18,-25,12,-25,-12,-11,-9,-7
-21,-35,21,47,-57,14,16,-5
5,-54,0,-61,87,-2,-6,7
3,49,-13,-35,-128,-20,-4,-6
3,49,22,48,-120,5,5,-6
2,28,15,22,31,12,14,5
-8,4,-9,-30,57,-14,-19,-14
-5,2,14,-22,-84,-14,-4,-4
-5,3,-51,0,28,-9,-8,-5
-50,-103,28,44,61,22,12,-13
21,-45,48,58,14,24,24,24
51,127,-9,-43,14,-15,-19,0
-15,-10,-81,-34,-55,-38,-33,-23
-12,-4,-9,-51,-45,-7,1,-3
-29,-28,-2,-17,-17,-7,-6,-6
-16,-65,-2,22,30,13,9,11
12,78,49,65,64,12,19,-4
10,26,5,-50,-103,-9,-12,-10
-19,-48,1,19,-23,-6,-2,2
11,14,-3,11,39,7,5,12
-6,5,-16,-18,7,-17,-14,-13
1,4,6,-13,-43,-5,1,2
-3,0,2,7,53,1,9,9
-15,-63,-7,2,-1,16,10,-13
8,89,67,42,17,11,11,37
23,68,-4,43,-12,11,8,-24
-8,20,-91,-61,19,-17,-18,-17
2,-2,-3,-44,-28,-14,-8,6
-23,-32,16,27,-7,7,0,-4
11,32,21,12,-8,-9,-2,0
-22,-14,-1,-35,-6,-12,-12,-28
17,-15,-30,-24,-39,-18,-8,20
12,-45,39,52,20,19,14,7
-41,117,-35,-16,90,4,-6,-17
9,-125,66,56,-57,7,3,4
7,85,18,-1,-62,-14,-7,-33
-18,38,-57,63,-20,0,-9,-2
2,-18,-13,-1,45,1,10,44
-6,-17,-11,-26,-22,-5,3,-3
5,44,-18,1,-15,-10,-13,-10
-20,-53,-14,16,71,19,4,-6
-8,14,-3,6,9,-1,0,-6
40,7,55,-13,0,1,10,23
-30,-81,-52,-67,-33,-20,-16,-22
16,15,21,23,-12,2,4,25
-18,-93,11,17,28,8,-10,-31
13,-37,3,20,-41,7,18,11
6,71,6,11,23,-5,5,9
-24,-22,-25,-38,-64,-9,-17,-12
13,56,11,-11,-70,-24,-1,4
-9,61,-2,-1,66,20,15,-8
4,-13,-1,23,30,7,5,17
-2,-62,3,32,-71,-4,-5,-4
-37,-50,-39,-22,11,-1,1,0
5,26,28,-14,34,11,-5,-6
40,-23,15,46,35,6,11,19
1,14,26,-45,34,-1,5,-11
36,111,37,0,2,7,-1,13
-41,-106,-82,32,-38,-17,-24,-24
-23,-93,-74,-30,13,2,16,-6
4,34,61,22,43,9,3,4
-12,-19,-30,-77,-45,-20,-16,-6
3,-31,23,27,2,7,5,-4
-14,55,-13,21,-16,2,2,-16
15,37,31,1,46,9,5,7
-6,-3,-12,-58,-59,-23,-11,-2
-9,-16,24,82,127,30,9,5
-27,7,-5,-14,9,-7,-12,-15
58,-60,9,-25,6,6,10,35
-11,88,-73,-39,-49,-7,-11,-28
-1,-47,22,2,-87,-21,-8,-7
0,53,-28,-47,-55,-4,0,-6
-10,-22,21,3,22,4,5,3
14,117,59,18,36,2,2,1
-43,-128,-78,4,14,-9,-9,-6
-27,71,25,24,47,17,-1,-12
47,127,5,-11,64,-15,-23,-6
-37,24,18,-24,-128,-23,-7,10
73,-75,57,63,111,31,33,33
-11,114,-107,-19,5,-12,-19,-26
-14,-40,-21,-29,-2,-6,-7,1
-21,-18,-12,6,-9,-16,7,16
11,-32,17,-42,55,4,1,0
-16,25,14,-5,-81,-5,-6,-11
3,-24,-19,-4,-12,-2,-2,-15
15,30,-2,-9,-12,2,1,15
-3,15,-4,-11,1,-1,1,7
-9,10,42,63,69,20,11,-3
23,-84,-44,-49,-41,-11,-10,-7
-15,64,21,43,-25,-20,-14,-10
-23,-128,-28,-117,-23,-4,3,-2
43,103,43,19,5,16,21,47
-1,127,-5,-5,-28,-5,-4,-26
-15,-100,-36,-8,-24,-16,-9,-16
-6,-17,-14,7,-2,0,-1,-1
-24,-86,40,-24,-8,-11,-2,0
53,120,-29,26,52,26,18,34
-4,-34,-37,-71,-7,-6,-16,-10
-20,-43,19,42,111,34,19,-11
2,59,101,41,-82,-10,-2,-17
26,-120,-5,14,14,4,18,33
37,98,8,0,-22,-19,-14,-4
-49,32,-41,-39,10,-8,-22,-42
-5,-27,-20,41,86,0,7,7
7,-128,50,-7,-4,12,12,11
28,57,-18,-1,-38,-9,-7,1
-13,-48,-50,-69,35,7,-10,9
-37,13,32,20,3,4,4,-9
0,127,4,-45,-17,-20,-6,-1
17,-128,-5,22,23,6,-8,16
13,23,-39,13,26,-11,-2,-16
-11,-11,0,30,-2,2,-3,-8
-15,13,-7,12,-11,4,2,0
12,-6,-13,-9,16,14,7,6
-21,-31,31,-23,8,2,1,3
27,-8,30,-6,-63,-10,5,5
-17,16,8,66,-28,-7,-15,-30
2,2,2,16,5,-2,2,14
-11,-22,2,-28,-1,-12,-6,-4
9,49,-7,34,-42,2,2,3
9,7,31,-14,-29,1,-4,3
-5,6,44,85,78,30,17,-2
-9,-42,-83,-48,12,13,-1,-1
35,-39,95,-43,26,-18,2,26
0,-68,-22,35,-49,2,1,-14
-22,27,-42,-15,-4,-14,-16,-21
-5,26,-21,-52,-6,-8,-4,3
-26,-46,-10,43,37,-6,1,-6
20,127,88,1,-44,3,8,33
-17,-19,-71,-26,17,-8,-22,-45
11,-95,-13,-8,-84,-13,4,28
-38,40,-42,2,-11,0,0,-7
-11,24,73,2,23,18,0,6
43,28,43,16,10,-3,2,4
-24,-16,-34,-5,-3,-12,-14,-30
-26,18,-9,-32,-32,-24,-8,7
3,0,31,27,-3,25,13,16
28,15,9,-14,4,-10,1,16
-15,-59,-30,15,-7,0,-20,-22
-22,-35,-23,6,-10,2,-6,-23
-5,127,58,9,62,0,-1,-1
24,-128,21,19,2,-5,2,0
-7,92,-93,-41,-38,3,-2,1
3,24,-16,-22,19,-13,-21,-9
-28,85,24,-56,-28,-15,-14,-16
-11,-12,32,102,-128,3,11,-7
-8,36,19,37,64,4,-1,-4
7,8,-18,-115,-9,-9,-3,1
6,-8,-49,-13,13,-6,-4,3
-33,-19,9,-32,-59,-13,-13,-13
11,-47,11,2,5,5,-1,8
-2,24,-36,-12,15,-14,-14,-9
-18,-35,-37,-9,-26,-6,5,-1
-14,-25,51,18,42,18,4,2
-12,-128,2,-33,-27,-13,-1,-14
16,127,-8,80,61,25,15,-4
18,41,-55,-62,-125,-42,-30,2
-18,-19,14,30,38,16,6,2
-23,-81,4,29,44,17,7,7
-8,22,28,21,10,-6,-2,-20
1,23,-11,-16,0,3,-1,3
4,67,25,-31,-15,-7,-4,8
9,-92,13,-4,-24,10,5,24
-16,-91,-33,40,-1,-21,-11,-24
6,22,-41,-31,-51,-15,-10,0
-2,16,19,0,-17,12,8,2
-5,12,10,13,68,5,0,-6
3,-15,-45,-31,-40,2,2,2
-9,2,83,95,-78,5,9,1
-6,90,-5,-74,31,5,-15,-4
-5,56,-95,-72,-128,-47,-13,-10
-7,-68,91,72,-80,6,15,3
0,-20,-44,67,80,3,-5,0
-11,-30,-42,34,99,36,10,-4
3,73,46,-7,60,-4,1,-2
-13,49,-13,-96,-109,-39,-21,-15
-10,-90,-30,79,69,43,24,4
14,-40,-55,42,-8,-15,-17,-7
-16,5,84,-128,-7,-10,-10,-21
-33,-81,-57,-24,-30,-16,-9,-7
-14,34,31,69,16,44,20,25
7,-86,-22,-19,1,-22,-4,-6
0,127,-11,-14,-5,-4,-10,-21
13,-12,37,15,-3,-3,1,0
22,56,-12,-32,-9,-7,-1,25
-19,-19,10,-10,-17,-2,-14,-20
11,-8,1,4,2,-12,-11,-3
-24,-60,-26,-10,14,-8,0,-11
-17,127,34,-7,0,10,11,-2
25,-128,51,-19,19,7,12,17
-30,69,-116,-7,-5,-21,-38,-39
3,49,24,-12,20,1,10,13
-6,24,-23,-49,-55,-38,-10,-6
12,44,39,51,16,58,30,18
-7,-35,-24,33,33,-8,7,9
-15,0,-21,-70,-78,-19,-17,-13
-18,-11,-2,8,-11,15,1,-6
24,103,31,32,0,-6,-8,1
2,127,50,-35,10,-20,-10,-9
16,-128,18,19,32,12,16,9
-11,-38,-62,-23,31,-11,-19,1
-1,-23,-53,-1,41,-12,-7,-6
-1,-36,52,40,-28,33,16,16
5,70,34,7,4,-9,11,-3
-9,30,-26,-60,-40,-23,-13,-13
-3,-4,12,-12,20,4,-6,-4
-2,-101,-1,14,-2,8,4,-5
24,70,-36,-39,5,-2,10,8
-4,28,15,-2,-31,-29,-17,-8
2,-20,-3,86,-8,32,10,6
-44,-128,127,4,-6,8,5,6
15,127,-13,-28,-17,-34,-9,0
34,-21,10,-26,-34,-9,-10,-7
-18,-82,-78,52,-10,-2,4,-5
-23,-32,7,-8,22,1,-4,-12
-15,-128,11,12,16,9,5,-6
-11,68,5,-34,0,1,6,4
24,47,-6,-19,-19,-10,-10,6
-2,71,45,21,10,-2,-3,3
-16,-94,-71,-24,-2,6,-7,-14
-28,-39,-22,-5,-39,-5,0,-4
13,-47,6,-7,-5,-18,0,17
14,10,15,0,-44,3,2,39
-1,23,-3,-10,-43,-14,-10,-37
-9,-95,1,-23,-61,-10,3,9
-8,28,-2,-25,1,-8,-14,-20
-3,38,46,31,-9,20,8,-5
-9,-33,-25,23,35,2,-3,2
-9,-21,-36,-81,-60,-18,-6,0
-17,-34,14,5,2,26,-20,-24
11,-44,10,15,-127,-26,5,18
-11,46,-41,4,61,3,0,-8
5,-112,29,-3,8,3,-3,-2
-7,127,-80,-30,-8,-20,-21,-20
-30,-21,118,7,-13,-13,-13,-3
-4,65,-21,-16,5,-8,-8,-16
40,-49,-4,-28,17,46,22,55
-25,-128,-105,-58,-58,-69,-20,-7
-22,41,77,11,-22,8,3,-6
9,127,-53,-22,123,18,4,-11
-9,43,-10,38,-44,-3,8,4
-4,-5,75,23,17,1,-1,-11
-5,-128,-79,-32,-16,-6,-10,-1
-35,-90,-95,-59,23,-23,-19,-21
99,127,95,66,-58,15,19,28
-28,44,-20,-19,-27,-16,-19,-23
-35,-128,9,11,-1,-3,-1,-3
59,127,40,14,57,32,20,13
-5,46,4,-11,0,-31,-6,1
-7,-38,-21,-11,18,3,1,8
6,-108,16,39,71,20,5,-4
-5,98,17,27,25,13,4,10
8,-44,-1,-1,-2,6,14,15
-29,-10,-15,-21,-32,-12,-10,-16
-7,-91,6,-114,-58,-29,-12,3
24,127,28,88,88,35,16,-1
-18,-96,-3,80,104,33,14,16
14,5,-8,11,1,8,-2,6
-4,46,8,-22,-42,-24,-5,9
29,44,46,-15,-60,-9,-13,-8
-24,-51,-59,-63,46,-20,-26,-25
-29,-12,-11,-14,-107,-16,-3,-13
22,16,6,-37,-79,-1,2,8
-24,-54,26,107,57,46,9,9
-31,-103,-41,21,-16,-17,-1,-3
15,17,14,-56,-18,-19,-15,-15
21,127,-66,-3,13,-17,-10,-11
-3,23,46,-14,-5,16,-1,-5
-1,-37,30,-7,17,-5,5,6
-5,12,37,-7,-21,-2,-4,-7
-4,-62,-35,15,32,6,-7,-12
-29,-72,-22,-25,-3,1,-5,-11
12,108,44,24,-16,-11,3,11
-5,-9,15,-4,-4,-15,-6,-5
-52,-128,-77,-21,-25,-12,-17,-32
-16,-108,5,4,12,-2,-5,0
30,-69,7,-27,6,2,12,-1
38,127,1,20,-5,9,-2,21
0,16,-1,15,1,9,0,3
-30,-81,-29,-70,-51,-23,-9,-11
28,53,43,80,112,31,11,2
-35,-128,8,-7,18,-18,-12,-19
5,92,40,-45,8,11,4,16
21,106,-20,27,-25,-2,1,4
0,-38,-43,-47,-27,-17,-10,-7
-17,-19,-17,-21,-22,-8,-6,-11
-11,-17,-61,18,44,-2,3,0
-6,-9,69,15,-14,-1,1,-2
-5,-8,-23,2,80,6,-1,-8
1,25,2,17,60,14,1,-2
-2,16,4,12,33,5,7,17
7,-38,-21,-41,-38,-9,-3,-8
-5,51,-14,-12,-33,-9,-7,-13
-9,19,-6,32,11,-23,-22,-12
-10,2,-36,-30,-18,0,17,9
-1,-97,4,10,70,12,0,0
4,-71,41,64,-77,8,11,-8
122,127,122,18,21,6,2,9
-14,-128,-128,-101,-53,-33,-27,10
-53,-111,-49,-43,-34,-7,-11,-15
-79,-128,1,-16,30,3,5,-13
61,127,38,74,-57,-16,11,18
2,127,-19,-79,-36,-13,-20,-10
-1,6,9,16,13,3,3,-2
-6,-9,4,-2,7,6,2,1
-30,-41,10,15,9,-5,-5,-4
-6,30,12,-10,40,7,3,-2
17,-26,-32,-5,25,2,2,5
-2,1,3,11,-19,-6,-8,-6
-8,3,-16,-6,-74,-15,-1,-8
-37,-113,69,54,24,11,2,-8
27,54,20,-35,86,4,9,9
14,32,-27,-51,-128,-34,-23,-10
0,6,-13,31,20,15,10,25
-16,-28,-17,-12,-13,-3,-14,-25
-23,-19,-1,15,-20,-32,2,-10
7,30,0,8,69,9,7,8
11,-65,40,-48,-84,-15,-1,10
-12,33,-87,-40,22,29,-8,-9
-5,-9,-34,66,68,33,21,4
5,13,53,-30,31,-18,-20,-11
-22,-13,53,0,-128,-8,1,-9
2,-57,21,-12,56,10,-6,2
1,28,-9,-1,-54,-13,-11,-6
-1,24,-11,36,64,8,0,-2
-26,-43,1,-10,-8,0,-4,-10
3,30,-26,-19,-5,-7,-2,9
2,-38,-37,-5,-10,-7,-6,-5
-15,-16,33,-6,9,5,-12,-29
34,65,33,-7,1,1,4,-12
8,-36,-42,-16,-22,-6,-10,9
11,38,-12,-7,-4,-19,-11,15
-22,-92,-27,-12,-12,10,6,-5
-18,27,8,6,2,1,-6,-15
12,16,23,20,13,3,3,1
-7,37,-19,-6,-4,-10,-3,-18
-9,-19,6,-29,-10,-5,3,-1
22,20,20,-21,-27,1,-4,13
14,-40,4,7,-1,-12,-2,9
-4,90,35,26,30,-5,0,-15
11,60,-12,0,-36,18,21,9
-15,-80,-36,3,-65,-6,-6,-13
-12,-52,-20,24,-25,-13,-9,-9
-7,14,28,-8,94,15,4,6
11,102,52,-11,-6,5,-4,-5
7,-50,-24,-17,-87,-19,-8,-6
-4,-61,-6,2,-17,3,-2,-6
-6,16,17,1,1,-15,3,-2
-13,-34,-15,13,13,1,0,-12
0,20,-61,-41,-20,-6,-2,20
-5,-37,77,-20,-54,-8,-5,-2
-5,-101,16,41,47,29,8,0
-11,44,-21,-7,0,-26,-4,-5
-12,4,-6,-67,-28,26,0,-8
7,31,9,76,42,-9,9,-6
17,-19,4,-62,9,-5,2,17
-49,-82,1,81,-17,6,-2,-9
13,30,-28,-126,10,-9,-4,3
-42,-128,-30,-74,-51,-10,-12,-11
28,127,-24,17,-38,1,3,-14
10,34,63,27,71,13,8,1
-6,-44,-1,9,-66,3,11,29
-19,-88,-29,12,58,4,-19,-9
-13,61,-41,-52,-72,-32,-10,-30
14,47,20,39,17,-10,-4,18
-19,-97,32,8,-8,5,20,34
17,119,23,11,-11,1,-3,-4
9,-25,-59,-7,-2,-5,-13,-16
-25,-5,-30,-14,-11,-2,-5,-5
-23,-71,-20,-17,25,-3,-4,-5
4,41,42,22,-31,-8,-7,-4
-14,-8,3,3,-4,-13,-12,-16
-5,15,16,-20,42,15,3,-1
6,-17,-18,44,13,9,0,8
7,1,-69,-16,-18,9,6,-4
-6,46,59,-30,127,9,-10,-4
7,3,15,24,-128,-21,11,2
-13,-30,-16,11,-15,-2,-5,-7
-12,-17,-1,16,21,4,-3,-2
16,-3,-11,-51,-2,-12,2,7
-5,0,0,11,6,-3,-12,-13
-28,-30,-56,-78,-65,-9,-5,-7
-15,-109,-32,33,32,12,9,8
4,127,87,-58,-23,-4,0,6
12,-33,26,29,43,-15,-4,-7
-2,-52,-65,9,-10,-9,-14,-15
-10,-13,5,8,-21,10,3,11
-9,-32,-26,11,-6,-2,0,8
-23,-20,9,-28,-25,6,-1,-14
27,25,52,37,-7,16,12,-11
45,127,8,5,2,1,11,39
-67,-128,-23,-18,-17,-2,-33,-19
20,127,-34,-46,26,-50,-9,-20
15,23,-55,-16,-54,22,0,13
17,26,19,29,28,-5,3,3
-13,-40,-11,-13,-20,-12,-5,-6
-10,-30,2,-22,-14,-7,-1,-3
-31,-51,8,28,6,7,0,-6
-5,-51,11,-16,-80,-6,2,-6
9,86,-4,57,112,11,-4,-14
3,-6,3,-4,-79,-8,0,10
-2,-49,-54,-73,-1,-4,-6,2
-9,-42,37,39,0,-6,-4,-6
-20,-27,11,1,2,7,0,-4
20,60,10,12,58,6,1,2
1,-40,-10,13,-38,16,-5,-5
-5,4,23,0,21,-15,2,-7
-11,-40,22,18,10,4,7,-14
-12,9,-48,-35,-44,-13,-6,9
18,5,20,40,44,-12,-2,10
-25,-9,0,-49,10,-13,-21,-15
-2,-38,-54,30,-4,15,11,4
3,63,50,48,24,12,7,-22
14,15,1,-1,-17,12,-1,5
-54,-64,-18,-7,-1,-3,-9,-21
5,24,14,-12,4,-3,-6,5
8,127,12,-15,25,-25,-14,-14
16,46,44,26,0,-23,-11,1
-44,-128,-46,-13,-70,6,-6,-35
22,79,23,47,42,0,6,21
18,-43,20,14,26,26,0,9
-5,-47,-48,-32,-19,1,-9,-15
-20,-34,-21,-23,-1,-24,-4,11
-2,-16,-24,-19,-53,-3,-8,-2
-13,-17,-17,35,49,9,-1,-13
-26,-8,-8,7,20,4,-11,-24
24,-7,18,-32,-12,8,10,-3
5,38,1,-41,-6,-5,-5,8
9,49,22,78,43,9,7,27
-15,-2,-7,-9,6,-10,-8,-13
0,-32,19,-40,-45,-11,-2,-6
-3,5,4,34,-52,-7,-5,-10
-8,12,-50,-26,-92,-20,-7,-2
5,0,3,53,86,17,10,-2
-9,-49,-7,18,121,14,6,4
0,87,22,22,-21,11,4,-7
15,-80,25,-29,-22,-9,-4,17
-8,28,-21,-5,4,-17,-14,-18
-15,-23,-96,-76,-9,12,-11,-1
-12,-27,2,-5,-119,-38,-3,-8
10,64,49,84,88,20,10,6
-7,-46,-2,-54,-22,-9,1,-1
-2,13,-2,7,-10,8,-10,-12
-19,-2,-9,-3,4,1,-3,-7
-6,25,-15,-23,-14,-17,-1,16
-4,-88,25,10,-27,12,3,-29
13,70,-7,-7,9,-8,-2,4
-9,32,-27,-18,-22,16,3,-14
-49,-48,8,-3,-1,-3,-28,1
49,7,8,3,1,-15,1,5
26,65,18,9,6,4,2,9
4,-58,4,-16,-32,-8,-5,-22
-7,-73,-43,-22,-23,29,5,13
9,38,11,18,37,0,12,12
-38,-123,-33,-21,18,-20,-15,-31
12,15,13,14,-63,16,16,23
-10,57,-28,0,23,0,-19,-31
-8,-36,41,-17,60,2,-2,-3
0,26,-13,-46,-29,-9,-5,-1
-4,39,-3,51,30,2,0,-11
8,31,0,-19,-25,-6,3,5
-5,-35,-19,39,-28,6,6,2
-12,-39,-26,-32,20,-12,-9,1
-9,21,-11,-24,21,8,6,0
23,10,17,-26,-128,1,6,0
-4,-78,52,80,83,19,2,2
11,84,-82,-50,-7,-11,-7,8
0,59,-4,-37,28,-6,-1,-6
-3,-41,-24,27,36,-5,-4,-4
-8,26,44,17,10,4,-1,-6
-11,-49,-17,5,10,-3,3,-6
3,47,-17,-23,-20,-6,-4,9
-35,-128,-40,24,71,17,8,-28
38,127,34,-9,-13,-7,-10,-25
10,3,2,-8,-5,9,-7,20
-9,-47,-30,-12,-47,-23,-12,-11
-3,-13,16,-11,9,7,-1,2
-17,-32,-8,-9,0,3,-7,-9
-3,11,-9,10,-7,-21,-7,-12
-20,-29,28,22,41,11,9,4
1,-30,2,-8,-6,-7,-6,3
34,82,10,-13,11,-1,2,-2
0,43,2,-43,53,-2,-17,-6
-14,-128,-30,-37,-128,-43,3,-5
-8,7,9,120,127,36,8,-15
-19,-30,3,-11,26,-6,-1,1
-6,15,-40,-14,-7,-11,-6,16
45,127,60,-5,-48,-17,-19,-25
6,-13,46,5,15,1,13,28
-25,-105,-66,-38,31,-10,-16,-11
3,15,-24,-79,-87,-10,-2,-7
-19,-4,-3,46,8,7,-2,2
1,-29,-22,7,21,-5,1,-20
-22,-21,92,-1,25,0,-2,1
37,79,8,-22,-128,-7,7,14
29,11,6,47,57,7,5,23
-5,49,-39,-34,-30,-6,-10,-13
-4,6,24,7,11,-1,-1,-4
-20,-23,-17,-18,7,3,-6,-5
-11,-11,25,-18,-11,9,0,-6
0,28,-19,18,-35,-13,8,-4
-12,-104,34,34,1,12,8,5
-4,17,-19,-31,-71,-9,-2,-7
19,24,-48,-51,-44,-17,-11,-17
-8,-11,-12,-1,32,1,-6,14
-7,-9,16,3,19,-7,-11,-2
-4,-25,-16,24,-3,12,10,-7
-1,-7,59,51,19,10,9,10
7,-21,-38,-62,-20,-26,-15,-10
-11,-7,-2,6,-38,1,3,-7
-1,6,3,35,19,10,1,6
18,66,13,-14,-9,-11,-7,-16
-15,-58,-14,14,12,1,3,10
1,9,-3,1,31,22,-2,17
5,24,10,-2,-24,-24,0,-15
-11,-121,1,-43,12,-2,1,1
15,68,11,27,-46,11,11,7
35,87,20,35,42,5,1,0
7,-60,-73,-15,8,4,1,14
4,20,40,-16,-22,-7,-1,-11
-6,16,8,14,33,18,6,2
-14,-4,-24,-8,-22,-5,-6,-10
-16,-6,-17,-2,5,-1,-1,11
46,53,9,-9,63,-3,-13,4
6,14,76,32,-3,1,19,11
-9,-11,-73,20,-27,-2,-11,-29
-6,9,27,-2,-14,-12,-2,4
-17,-79,-11,-12,4,2,-2,1
-14,15,3,0,26,-6,1,-6
14,-20,-12,-7,-63,5,18,8
-10,17,-75,-49,39,-4,-2,-8
-26,-53,113,26,-5,-9,-8,-14
-4,0,17,21,49,1,3,11
40,69,-15,-14,-28,-27,-16,3
-8,-19,-14,-10,-30,-11,-11,-10
-7,-10,-19,-14,-20,6,3,-2
-7,-5,9,20,29,2,0,-4
-20,-36,-13,-9,25,-7,-8,-8
-13,-15,-4,-32,-34,-2,5,10
69,111,67,101,48,38,16,12
-12,7,-71,-6,-10,-12,-18,-19
-2,33,-3,-24,-10,-15,-4,4
-21,-22,0,-56,-38,-26,-21,-13
4,5,14,12,-118,-1,17,-3
42,20,15,87,103,28,21,37
1,-23,4,7,15,-9,-6,-7
-19,-18,4,-49,-83,-19,-10,-3
-94,-128,-66,5,-12,19,2,-10
44,127,127,41,-12,23,29,-4
28,56,-78,-37,-25,-39,-38,-20
-11,-46,-75,19,-41,-33,-8,11
-2,-32,9,-47,-4,-8,-4,-7
-22,-21,15,-6,-28,-8,0,1
1,-21,2,25,30,18,11,3
-8,-52,-6,16,2,9,10,1
3,39,-13,-20,-13,-1,-4,-6
1,32,17,-9,23,-6,-8,-7
-5,3,7,-10,-92,-10,-7,-1
2,7,35,18,-16,-1,-5,-2
-9,-16,-26,-41,-57,-16,-7,0
-16,-64,8,33,56,11,6,3
20,100,11,23,32,3,-2,-15
13,0,-26,-14,-30,8,12,10
-11,6,-23,13,6,-5,-1,-16
-9,-27,-19,-14,-14,-8,0,7
-9,11,15,5,-54,1,-1,-4
-1,9,-5,-3,23,-12,-4,-4
-10,-43,-24,-30,40,-9,-10,-9
-19,10,11,4,-66,0,2,1
4,21,17,-12,-23,9,8,1
17,-72,3,34,44,1,10,-5
-3,36,-53,-40,-10,-8,-13,17
-5,0,-1,24,5,-18,-1,-2
2,-17,11,14,19,0,-4,1
-30,-36,-35,-89,56,7,-4,-10
5,-15,-38,-27,-128,-22,0,3
14,127,78,127,127,21,-1,-16
13,6,-17,-14,23,2,5,19
-30,-45,-24,-22,7,22,0,-3
-22,-61,34,-2,-1,-20,1,-10
35,22,-23,-12,4,-5,3,24
14,98,34,1,-63,-6,-6,5
-16,-115,-5,-48,-5,-1,-10,-4
-35,110,-13,1,7,-11,-7,-24
55,-92,51,10,-64,10,26,36
-14,-7,-87,17,66,7,-9,-13
-13,1,8,-6,-33,-12,-8,-4
-14,1,15,17,22,6,0,-8
3,-1,3,-36,-7,-11,-4,-1
-10,-16,-2,44,11,17,5,-3
-1,-1,28,-97,-63,-11,-5,-2
18,-3,42,8,-128,-11,14,12
20,90,-6,105,127,43,8,-6
-7,-23,-52,-5,5,-13,-10,4
-2,3,16,-9,-3,-10,-5,-7
-11,-15,63,7,24,0,-3,-5
-4,8,-49,-68,-3,-7,2,1
7,-22,18,-10,56,7,2,9
-52,-15,-31,-39,-69,-19,-12,-9
53,48,52,106,118,13,19,8
7,-7,-19,-19,-11,-4,-5,0
-12,-25,-35,-24,43,6,-6,-7
1,-31,-7,24,31,9,-2,-2
2,14,1,-9,-3,-1,4,2
1,26,-1,-11,0,-2,-2,-1
-35,-66,12,-79,-62,-18,-18,-19
-61,-128,-69,39,27,18,8,-36
43,94,9,44,32,25,12,14
37,111,-20,-22,-27,-2,-6,0
-1,20,5,-24,-46,-28,-8,6
-15,-33,3,-8,-19,-11,-9,3
-7,-11,0,-21,8,9,2,-9
-23,21,16,19,-3,-3,-7,-14
46,-14,14,6,3,-5,1,16
-15,-12,-19,26,-14,9,4,0
1,-52,5,7,25,2,-2,-3
-1,21,-87,-34,-5,-3,0,-8
-7,-9,59,2,-3,-1,-4,-6
-10,37,37,-4,47,7,-5,-6
19,55,-7,11,45,7,9,9
-15,-61,-2,-24,-23,-13,-13,-11
-15,-17,-4,22,-51,-11,-5,-13
1,22,-9,27,37,7,6,-7
13,-24,44,29,80,23,16,8
19,-5,-4,59,74,8,6,22
-2,26,-27,1,-5,-16,-13,-6
-8,6,-17,-40,21,-6,-5,-2
-20,-15,6,1,30,6,-5,-5
6,-4,9,-25,25,12,8,3
-33,-115,-64,11,-1,-5,0,-5
90,127,127,46,-80,17,25,30
-44,-30,-103,-7,48,-11,-31,-36
-17,18,-39,12,-4,-12,-13,-4
-19,-8,11,-13,16,-1,-5,-8
-11,-24,-18,-25,-19,-1,1,-12
-6,-4,4,0,-8,2,-3,-7
13,27,64,21,24,8,13,14
-29,-128,-44,-13,-4,-24,-9,-10
3,54,40,-20,-22,-14,-3,-11
13,35,-26,30,16,11,-3,-10
12,-22,-21,-17,5,-2,-5,20
-6,-3,0,-2,-12,1,-6,-4
-15,-21,-4,-12,7,-1,4,-5
-9,6,-4,-1,38,-7,-6,-9
2,4,12,15,44,-3,3,-1
-5,-23,3,39,24,27,8,-4
-23,-18,-18,-11,25,-18,-22,-20
-6,-55,-14,-13,-105,-15,9,-7
38,51,23,28,78,28,12,8
-6,104,1,-19,-9,-9,-4,7
-9,-31,-30,6,-1,-15,-11,-3
-1,-20,10,-1,-12,-6,0,3
-9,-9,4,1,33,4,-3,-10
-17,-9,-46,-57,-30,-15,-4,-5
21,11,31,-6,-17,5,1,6
7,16,14,38,100,24,9,6
-19,-11,-55,24,-28,8,6,-13
3,25,61,-15,11,-4,-8,-7
16,-10,-21,-8,0,2,2,16
-5,10,-12,-21,20,-24,-21,-18
5,28,26,-20,-105,-10,10,11
11,-34,4,29,36,15,10,24
-44,-42,-25,-13,0,0,-10,-31
-21,19,2,2,-44,10,1,-20
74,-50,21,64,72,5,21,28
-2,71,-25,-7,10,-14,-12,34
-4,-6,-3,-15,-16,-16,-13,-21
-9,-20,10,-16,7,4,4,-2
1,12,4,-23,-12,2,1,0
-1,3,-4,-21,15,6,2,-2
-40,-128,14,-12,-37,1,-5,-16
29,98,33,24,-74,6,21,13
3,104,-32,22,58,-1,-16,-18
-11,-56,-23,1,-23,-6,-5,4
-15,-49,-41,-12,-45,-5,-9,-5
-6,-10,9,-1,-13,-12,-5,-7
-5,-9,15,6,68,-6,-7,-1
-12,-33,-16,-83,-128,-28,-9,-5
-21,-45,-12,-31,-30,0,0,-9
35,94,40,127,80,42,29,15
62,104,81,17,2,0,-4,0
-22,-64,-105,-40,-42,-18,-21,-16
-5,-12,14,-7,-12,-16,-4,4
-5,-11,-18,-23,-9,6,7,1
-11,-27,33,1,-2,1,3,-2
21,20,7,-4,57,-8,-4,3
-19,-13,-58,-22,0,-8,-11,-15
-10,7,15,48,126,37,18,4
0,42,38,56,-67,-7,7,-4
17,21,-23,-33,24,-1,-1,13
27,-28,-26,-22,-11,-7,-7,23
-25,-4,9,-6,18,5,1,-2
-28,4,-5,-6,32,-12,-5,-6
-2,-71,34,-40,-56,-12,1,15
-46,-97,-89,86,127,50,8,-48
94,81,90,80,43,11,8,30
-9,4,-41,-49,-1,-36,-20,1
-9,-17,-14,-19,-55,-13,-16,-18
-7,-23,-2,-17,-45,-4,-2,3
-7,0,4,7,49,13,11,4
-14,6,16,-11,1,6,0,-19
-34,-12,-8,-22,15,-1,-13,-1
109,83,88,-30,-80,2,22,53
-9,31,-52,20,-76,-2,-11,-22
-6,11,17,30,-11,-8,-1,-4
-9,-1,36,6,40,3,0,-6
-7,4,1,-23,30,-8,-4,-5
-12,-85,-4,-27,-77,-18,-6,-3
-3,84,36,90,127,36,13,6
-5,-40,25,48,55,19,9,-2
15,8,-28,-44,20,-14,-9,-7
-1,12,9,-22,15,-11,-5,-1
-4,-9,-1,6,30,9,2,-2
-12,-14,1,-7,20,-5,-7,0
-23,-83,-34,-28,2,12,-15,-9
2,11,-24,-14,15,-26,5,11
54,127,46,-25,-101,-11,21,7
16,23,18,56,-23,2,-1,-5
-13,-70,0,41,12,-3,-3,6
-2,-25,5,-16,30,4,1,15
-9,-2,-12,-25,-4,-20,-10,-11
-31,-35,-19,-20,-29,7,-6,-22
-9,-7,-66,-1,4,-3,6,-2
29,41,113,38,23,12,11,30
2,15,-11,-13,2,1,-10,-20
-12,32,-22,-30,-18,-36,-19,-14
-8,13,-27,7,-43,6,2,6
-2,1,29,-5,-13,-6,-2,-3
0,4,23,3,6,3,-2,-3
-2,-78,-29,-17,58,-5,-2,15
-15,53,7,-36,-128,-4,4,-11
-1,64,-4,27,66,-3,-10,-12
18,8,8,11,15,-4,5,9
30,14,-5,-16,43,-6,-13,11
0,34,-9,12,-8,-1,-12,-14
-11,-20,7,-21,23,4,-3,-19
-20,-65,-15,-3,-46,-1,4,-2
1,-53,3,18,51,10,9,23
-12,52,21,-17,-36,-19,-5,-8
44,78,3,8,-79,-11,-4,2
-8,-11,5,8,50,26,8,-4
-19,-37,-36,-12,1,-17,-10,-11
-7,4,-9,-45,-112,-25,3,4
8,21,3,36,-63,-10,1,-5
-34,-30,-40,-29,52,29,13,-6
-49,-128,28,27,-13,-4,-5,-23
31,127,55,91,88,16,12,13
27,20,-39,-61,10,-16,-17,4
-13,-35,-52,-68,-15,-10,-8,-20
-6,-27,-1,16,-51,-15,-2,6
-9,-9,21,26,36,17,15,13
-16,-13,11,-16,53,-3,-5,-5
-18,-47,-41,15,-34,9,7,-6
15,26,89,18,7,2,5,7
73,125,36,0,-24,8,0,12
-21,-37,-31,-7,38,-8,-9,-12
-8,10,-13,-6,-13,-6,0,-3
-8,-10,-7,-1,-13,0,-6,21
-29,-8,3,-23,15,-30,-11,-32
7,35,11,-7,-5,2,-1,-2
48,-17,33,84,87,20,12,18
-17,-11,-33,-49,6,-24,-15,-11
-1,59,-5,7,-82,8,7,1
12,-9,15,-5,-45,2,0,7
-15,-44,-44,-31,-24,-9,-6,-9
0,1,9,7,37,0,-2,0
-10,-6,-14,-22,2,3,-4,-2
-17,2,65,4,-74,-25,-14,-8
-7,-71,20,36,110,13,9,1
64,127,45,60,-114,16,19,19
-19,15,-38,-43,-45,-18,-23,-17
-11,-19,-25,1,20,-1,-3,-2
-18,-57,9,-22,-17,-2,-6,-5
0,-15,-4,-11,-8,-15,-2,3
20,88,16,3,-19,-7,-4,3
-16,-25,-6,11,18,23,3,3
-15,-46,-28,-44,-1,-8,-1,-11
14,-35,29,41,30,-7,-8,-13
-27,38,-5,38,35,-12,-5,-6
13,-83,-38,-68,-81,-13,-7,8
0,-33,-42,35,9,1,1,13
-14,-13,4,-19,22,-1,-5,-9
-18,-21,-12,-17,-27,8,13,0
24,18,26,17,-40,-20,2,10
-3,79,4,63,62,19,-1,-26
-13,-19,-1,-7,9,-5,-3,5
2,-6,-25,-47,-13,-11,-12,-2
-4,-18,1,-17,-17,-8,1,-5
-2,-11,15,18,-33,5,8,2
1,-7,-13,-2,-20,-6,-6,4
-22,21,7,-1,7,-7,-5,-3
-8,4,-22,-60,3,-3,-14,-14
5,57,-9,-34,-63,-34,-13,-37
17,0,-20,116,83,30,19,21
-11,-32,-26,-16,-7,-6,-5,17
-7,-11,23,2,4,-5,-3,-6
-13,-22,7,0,-13,4,-4,-6
-9,-35,-10,3,6,-5,2,1
4,53,16,9,31,-1,-4,-11
23,61,-23,-96,1,-20,-13,16
-6,-17,25,-9,-14,-15,-9,-11
-5,-6,5,60,35,32,16,-7
-11,-41,-40,-5,19,0,1,4
0,5,29,-17,13,-7,-2,5
5,4,-24,8,9,-4,-6,-11
-11,23,31,-17,-42,-13,-7,-4
-36,36,14,-21,63,-16,-9,-15
26,-128,34,47,-10,19,28,10
33,64,-76,5,-86,-12,-10,-8
-10,41,-37,-16,8,5,-11,0
-13,-12,-2,-1,-7,-25,-9,-3
-7,-29,1,-4,3,3,-7,-5
10,-19,-34,5,18,3,14,5
-4,3,48,2,15,9,1,16
-11,-17,-26,-3,0,-3,3,13
5,7,16,-1,11,-4,-2,-1
2,-41,-11,-26,-86,-23,-9,-14
-14,14,-16,-15,4,8,3,-7
-11,-1,44,28,69,8,-3,-10
-16,-24,-8,-1,-9,1,0,-9
11,-10,1,10,65,4,3,6
43,84,23,13,-39,-11,0,9
-1,-39,-19,21,76,13,-1,-3
-21,25,10,-9,-27,-8,-7,-10
-8,-3,4,34,94,11,-1,-5
0,58,12,-25,-25,-11,-9,-11
-11,-46,-25,-5,0,-6,-12,-10
0,-51,10,0,40,3,-11,6
-66,-128,2,-45,21,-23,-17,-18
54,127,-38,-36,-103,-2,18,1
41,127,35,58,53,19,7,7
-16,-99,-98,28,63,-13,-24,9
-22,-27,-9,0,34,2,-1,-8
11,-19,-2,-14,3,-4,0,-4
-16,12,10,-8,6,-2,-3,2
-8,-14,1,-8,-2,1,-3,-9
-23,-25,7,-6,-10,-3,-6,-5
28,29,25,1,39,17,12,11
15,-24,-3,24,-12,-10,3,9
5,29,-16,-13,-21,-5,-4,8
-4,-4,5,15,44,-2,-6,-4
-5,-3,0,-20,28,4,3,3
-13,-16,-19,-9,11,-7,-17,-6
-31,6,36,1,-115,-9,-7,-20
13,-24,31,16,-22,19,14,7
21,17,-43,7,25,3,-4,-5
-4,9,-5,1,0,-9,-2,10
-25,-5,-4,-24,112,5,-1,-5
4,-62,3,17,-7,5,5,3
17,83,0,38,21,-1,-6,-17
-2,-13,-13,-59,-50,-13,-5,4
-10,-40,27,67,80,13,1,2
5,40,20,-6,5,-18,-9,-20
-11,-24,-119,43,70,27,5,-27
-2,22,113,-8,-25,-17,-1,18
0,3,6,-19,-7,-7,-6,6
-9,-14,9,12,38,9,-1,-1
-23,-25,-17,-16,-15,-7,-6,-9
9,49,24,7,-24,2,11,9
-3,-53,-21,-13,32,-7,-7,1
16,-6,3,13,-8,30,7,10
17,-27,-6,-26,-7,-18,-2,2
-4,1,-21,28,69,17,8,3
-4,5,-10,4,15,-5,0,-10
8,27,13,1,-24,3,0,2
-4,5,-10,4,15,-5,0,-10
8,27,13,1,-24,3,0,2
1,30,8,15,12,-6,-1,-7
-1,-24,-14,-54,4,-10,-4,2
-21,-1,7,30,41,12,9,-3
14,-87,-6,4,9,-2,-2,-1
