Channel_1,Channel_2,Channel_3,Channel_4,Channel_5,Channel_6,Channel_7,Channel_8
-3,1,7,-3,-7,-2,2,-3
-7,42,-50,9,53,1,-6,-6
-12,-44,-51,-69,-26,-18,-16,-20
-3,47,61,8,-43,-39,-12,-10
-17,-128,-15,-59,-28,18,6,0
20,64,58,127,127,57,14,-5
-32,68,-46,-28,-128,-16,-11,-25
-12,-5,-11,-66,-19,-25,-43,-33
16,-32,33,35,85,15,2,4
26,-110,-17,-35,-29,-24,3,22
0,17,-41,-22,1,-11,-3,25
-7,0,6,10,26,6,1,37
-33,-128,-57,-3,-75,10,2,-39
5,127,71,39,0,1,17,35
-6,-128,-23,40,39,9,-7,-18
-9,33,-30,-52,-9,-12,-13,-9
-7,19,1,7,-78,19,19,0
4,12,17,16,17,10,11,-2
6,-4,-8,-30,-3,-7,0,11
-7,5,17,2,82,24,2,-11
-3,1,8,28,114,9,-8,-3
5,-17,6,-28,-128,-9,20,11
-31,-32,2,21,-12,-11,-12,-40
-7,46,-6,-23,-11,-11,-27,-43
1,-40,-24,2,-1,3,4,13
9,-2,-15,7,19,10,25,92
-9,23,12,2,25,-2,-6,-33
51,6,22,-20,-88,-1,17,49
-5,-21,14,18,2,3,0,14
-10,-128,-17,45,-20,6,3,-11
19,127,127,54,55,13,13,20
-36,-84,-84,-96,-71,-16,-41,-47
-36,-91,-63,6,27,-20,-8,-90
-21,62,20,12,54,17,32,96
20,-128,31,23,-63,13,20,54
33,127,-5,-32,-52,-11,-21,-33
5,29,52,75,100,50,13,1
11,27,24,-23,6,-10,-3,11
16,16,13,-36,-33,0,3,-6
15,-3,-4,26,-48,16,3,0
2,-4,6,-18,-51,-26,2,13
-15,-14,-19,-66,9,10,-8,-10
-13,26,4,53,7,-32,-19,-13
-16,-64,-12,1,9,-11,-5,-5
17,99,16,-16,9,-4,-28,-11
-19,57,1,106,70,35,9,-21
-43,-82,-28,1,31,-20,-14,-25
-14,-24,-22,-16,-17,-2,7,-29
14,-44,-56,-28,-49,11,-4,-16
22,-29,113,45,46,-7,6,63
-19,19,-11,-6,-35,-21,-8,-16
-13,12,42,-4,20,-4,-1,0
-10,1,12,-76,-42,-15,-3,-1
-6,14,3,35,-91,15,15,1
22,48,40,17,82,18,6,14
1,-54,-18,4,-39,4,-5,-3
1,7,5,33,-37,8,7,2
4,30,-8,23,44,2,6,-6
-4,-18,5,-6,0,-6,5,-2
-9,-15,-86,-53,-49,-8,-7,-13
-13,62,56,-9,6,7,-17,-23
9,-10,21,-23,-118,-10,22,23
46,-4,-56,27,53,6,-3,-16
-14,24,-14,-64,-15,-18,-17,-8
-18,-16,-75,9,13,-1,-10,1
-4,-42,95,-5,-23,-23,9,9
14,105,-20,19,-42,24,2,18
27,117,-13,-1,31,-5,9,-4
-12,62,19,8,23,-7,-26,-1
16,-8,8,-8,-12,1,-1,-64
14,-88,-20,19,4,-2,24,107
-13,-5,15,-3,-6,14,5,-2
28,19,-7,-19,20,-10,-31,20
3,-7,26,-4,-17,-20,5,-53
-6,-37,-15,-4,51,20,19,6
4,8,-8,9,-94,1,4,48
13,29,12,12,11,7,-3,2
-5,-51,-8,-24,-51,-6,6,-2
-28,-15,-40,-30,41,-12,-23,-50
0,-11,5,-2,21,-13,-8,0
-24,118,21,52,69,14,8,0
-2,-128,33,-24,-5,-23,1,8
-24,127,-111,7,-5,-1,-16,-34
-12,-2,-15,-19,-26,-5,-2,-4
-8,25,17,-9,-32,-5,5,2
12,40,43,22,82,4,-5,-3
10,83,24,-20,-128,-8,4,0
-10,-15,29,12,6,-16,-7,-3
-12,-75,-51,-85,-30,-19,-2,5
-14,-11,11,112,127,12,4,-9
4,43,5,-17,-61,-4,-4,3
17,-77,-4,-57,-9,-2,1,-1
-1,-23,-11,47,25,13,2,-6
-14,18,5,-4,16,-3,-5,-6
-19,-86,16,-42,-24,-9,-2,-12
7,46,-27,11,-21,7,3,7
5,20,-7,5,63,1,11,17
18,-18,-21,-17,-76,-9,0,19
27,42,14,2,-8,-2,-2,19
-16,-127,-7,-9,27,36,1,-2
25,127,19,-4,-7,-14,-4,-16
-21,-35,-10,-15,-3,-2,3,9
-24,-128,18,-10,-22,-2,-10,-13
-16,106,-4,12,-27,-5,-10,-93
11,52,-48,-15,-9,-10,0,117
34,68,59,0,18,6,1,28
-6,-46,-46,-35,-21,5,12,16
9,-4,-1,15,21,6,-5,-11
-12,-3,11,6,48,1,-16,-14
-32,-117,-3,13,-55,9,13,-10
-27,127,97,31,14,15,3,-8
59,-128,23,18,-13,-9,-14,-28
-13,49,-128,-62,23,-20,-18,-5
-5,31,16,-5,-67,-27,-2,5
-6,13,-37,47,127,43,15,-1
-9,-9,56,-54,105,-7,-6,-7
-25,-63,-42,119,-85,28,17,-26
41,103,103,55,34,-3,2,40
1,-29,-16,-20,74,8,-8,-11
-4,-50,-66,-73,10,-48,-8,23
-8,-71,18,43,8,23,3,1
-9,49,27,46,17,2,0,-25
47,101,5,-22,13,-2,1,24
-12,9,-17,-3,11,-12,-10,-6
-12,-78,11,-15,-6,2,0,-2
0,24,21,-19,-8,8,-2,-17
-38,3,-30,-2,0,-7,-23,-55
20,-2,3,-26,-21,-5,10,-7
-11,-19,-2,30,-2,-13,24,86
5,-128,20,56,82,26,14,-9
-12,127,5,-42,-71,-30,-5,-42
-2,-11,-1,-2,36,-5,15,18
54,39,9,25,29,8,5,72
-1,51,34,20,15,27,-7,-39
-4,-65,-2,-3,16,6,5,22
-19,-61,-57,-33,-78,-20,-16,-26
-2,-28,16,12,90,7,-3,-2
-31,10,36,-25,-94,-5,9,-8
4,-31,-4,36,-19,0,-8,-19
14,15,-13,21,34,26,11,0
35,33,30,-17,-1,-18,2,53
-22,4,-30,-24,-5,-18,-13,-15
3,-25,9,-56,-39,-7,-5,1
-2,43,0,19,-83,8,3,-8
-19,-110,-47,10,40,5,-9,-47
-2,57,34,3,-51,-7,14,86
-24,-93,54,-85,23,-17,-22,-16
14,114,-28,73,-45,17,12,-40
36,26,127,24,2,-11,10,46
7,-41,-100,-52,-36,-11,6,21
-3,69,-8,-23,-48,-3,-13,-17
-34,16,62,48,65,2,-30,-17
1,25,-47,-69,11,-16,0,-27
25,-61,-12,-24,-48,-4,10,48
11,-14,-28,-2,5,6,-7,-7
-15,59,-17,-2,-35,-21,-15,-5
0,4,21,49,72,15,10,25
1,33,9,8,11,2,-3,-4
-15,-91,-36,-14,-2,-6,-9,-10
-9,4,0,-1,-5,-13,-2,-1
-5,-17,32,-2,9,4,0,-13
-9,24,-18,-34,-83,-10,-13,-16
7,-17,19,59,127,30,5,-64
23,73,-6,-5,2,-6,24,65
-3,8,19,-19,-53,1,2,-4
-8,9,-1,-1,-25,-11,-15,-13
-1,-16,-6,0,32,-4,-20,-32
-4,-6,16,36,-26,1,19,-9
-1,-13,1,2,44,-2,-1,6
-3,-4,-12,-25,28,-11,-11,-12
-3,38,19,-22,-62,-12,-11,-26
3,22,22,75,-11,9,9,-11
3,-45,-5,-12,-5,-1,-3,-9
-41,-40,-30,-23,32,5,0,-10
5,-71,79,-10,-22,-4,5,4
34,127,-65,34,63,3,-8,-20
-16,67,-16,-28,-19,-11,-11,9
-15,-36,43,41,2,-5,10,0
16,-95,-35,-33,57,9,-6,-14
-18,127,31,-6,25,-3,-11,-5
-5,-72,-35,-58,-49,-11,-3,16
-4,-119,-53,52,1,-2,5,-5
25,-5,55,-2,-24,-1,-3,1
-6,127,37,-26,9,-20,-7,28
10,-46,-32,24,5,-1,-6,-2
13,54,8,-32,-30,-15,-12,7
-8,-13,-21,22,41,6,3,-9
0,-23,9,-19,12,-6,-3,-8
-25,-48,-28,-20,-54,5,7,-7
-3,2,13,-1,-10,-2,-6,-25
35,51,12,21,25,-3,9,66
-32,-50,-12,-27,-20,-1,16,-8
-4,38,11,-4,-15,0,-13,-14
0,-63,-13,-15,54,17,7,-28
25,24,28,97,65,25,12,9
-4,41,-6,-7,16,-16,-13,21
-19,-73,-29,-115,40,-28,-21,-24
-8,34,-2,85,-6,24,5,-55
-3,17,-9,19,18,3,18,120
1,-60,41,-6,-10,-2,7,1
-1,-89,-40,-18,24,13,-12,-9
-8,1,-45,-66,-11,-22,-6,2
-32,-44,13,-56,-20,-31,-18,-38
13,42,24,127,127,67,26,-14
27,127,15,-6,-4,-6,-10,-5
-10,-35,8,-14,-9,0,12,3
-62,-128,-86,-34,-12,-5,-27,-19
-18,-62,70,12,-9,-15,-14,-46
7,-14,-17,-20,7,14,11,49
11,87,9,-23,-37,-2,1,10
-2,72,27,13,48,-6,-16,-10
-11,-76,21,-42,-59,-8,-2,-70
-8,62,18,70,100,25,9,56
-10,-30,-10,-10,66,-9,-4,-6
-8,-64,2,24,-83,17,17,6
26,-2,33,-11,-20,-1,-1,-4
8,91,-52,-69,-52,-32,-20,-2
-20,-22,-7,39,34,21,3,-8
-11,10,15,34,10,-20,-7,-11
-10,1,0,-23,47,14,1,-10
0,-73,-28,-16,-73,-1,-10,-1
-10,-31,-6,9,3,-5,1,-5
-19,11,25,38,18,7,-3,-18
30,116,14,-57,21,10,-1,8
-7,-64,-33,-15,-87,-16,3,-1
-28,-40,-8,-6,-12,-8,-5,9
0,10,4,-4,21,-8,1,10
-16,-24,5,-14,-57,-14,-17,-55
-7,-46,23,41,94,18,2,-1
41,47,21,40,43,9,28,59
20,-42,-47,-29,-11,-6,9,15
8,-27,18,-16,16,2,-13,1
2,127,26,-13,-9,-25,-20,3
-12,-44,-27,1,60,-6,-3,-17
-18,-15,48,85,71,25,-6,-40
-8,-10,21,-21,1,-25,-5,-13
1,3,-34,23,-25,18,22,50
4,-128,7,-13,37,1,-2,2
12,94,2,18,-81,-9,-6,2
-46,12,-30,-27,-19,-15,-37,-66
-21,-19,-38,-42,67,-2,7,-24
31,-82,-6,41,-35,5,21,64
48,88,2,19,42,12,21,27
-9,100,50,14,34,-9,-19,-14
-25,-44,-11,26,36,-3,-8,-24
-20,21,-1,-16,-19,3,1,-35
59,28,12,29,83,30,24,99
-9,-42,-26,-9,-2,-24,-6,-2
3,-87,-8,-12,4,-14,-13,-17
-21,-45,-7,-45,6,-3,13,-13
39,19,16,64,3,23,16,0
5,92,6,2,28,-11,-21,4
-21,-39,-22,0,-39,5,-1,-33
-5,5,0,2,62,-7,5,10
-20,-58,2,-43,-10,-24,-27,-20
-11,-2,2,-2,-9,18,34,-8
23,-10,-5,33,3,3,15,63
5,-31,4,-19,-52,-8,-8,-12
11,1,9,-18,-31,-7,-6,-6
-5,2,-26,8,28,0,-6,15
5,21,33,-1,36,3,2,-16
-18,-20,-18,13,-15,10,6,-5
6,-30,2,-2,10,-13,-5,-2
-18,11,-54,-22,-43,6,-7,-12
-18,-41,-1,-28,-30,-22,-11,-37
-1,-30,35,-15,-70,-6,-6,48
-22,4,1,15,16,5,6,15
69,6,-17,-7,26,19,11,11
-6,40,-41,10,58,-13,-2,28
-31,14,-14,8,-52,20,11,-32
-20,-50,-33,-45,-25,-13,-32,-24
-10,3,-32,11,-82,-16,-4,-59
19,-5,-7,21,73,11,16,59
-24,-14,6,-18,-68,-6,-17,-11
0,-10,-11,-26,20,10,9,-1
8,-118,-20,24,51,14,13,-5
14,106,69,52,58,2,-14,0
-3,53,-79,-45,-54,-27,-29,-11
-25,-79,-19,29,19,0,0,-11
46,81,25,1,-7,3,11,18
-51,-47,-13,20,118,13,-10,4
-35,-77,13,-47,-12,-5,8,-34
48,59,-10,58,-33,6,-4,-6
12,32,-64,7,65,-5,-10,42
-20,-15,14,-48,7,-12,-19,-13
7,-20,7,72,49,30,25,7
-3,-16,8,-26,10,-7,-12,3
-35,-30,-10,-47,-68,-14,-17,-67
24,9,18,54,73,10,21,43
-9,3,-34,9,5,-9,11,69
7,-45,55,26,-44,16,7,-13
4,-21,-34,-18,-28,-9,-6,-12
-1,41,-5,-47,-18,-13,-16,-18
-13,-28,-17,-12,28,-7,-1,-7
-4,-9,17,14,-26,0,2,-5
-1,127,16,-10,-14,-4,-3,-6
6,-128,18,-16,71,17,4,0
28,-18,-60,-34,-97,-8,-3,-14
4,29,-29,22,34,-27,-4,4
-15,-8,20,20,-74,4,-2,16
-13,-20,5,-22,-14,-16,-8,-12
32,-56,-5,55,79,22,14,4
3,117,27,-42,-22,-24,-4,29
1,3,3,17,70,6,-6,-11
13,56,-9,11,23,12,24,9
7,-32,-2,-12,0,-8,-10,25
-27,-83,11,-2,-6,-10,-16,-10
-40,-42,-41,-23,4,5,0,-22
-27,24,13,6,30,-4,-19,-62
42,55,25,-6,-46,-13,-1,8
31,8,-25,-29,-33,-13,6,83
-28,-51,-26,-11,127,0,-14,-51
-12,45,-8,-29,-128,-11,2,-4
-10,-9,11,42,27,-11,-6,3
10,-13,-8,14,42,2,-5,-25
27,-19,15,1,18,4,7,22
-45,-128,-34,7,-26,-9,-20,-19
6,58,67,4,28,12,13,-32
35,120,27,-58,-29,-17,-12,44
7,-52,-55,-12,-22,-15,-4,10
-7,-7,-2,3,4,4,-1,4
-11,-19,-7,25,2,8,3,-14
-5,-5,-5,-6,31,-9,-3,-3
-27,-63,-7,-2,24,-7,-10,-15
-25,28,3,12,2,7,2,-4
39,2,10,-51,-77,-6,-8,-66
13,47,-27,94,71,10,18,103
1,16,23,-18,112,5,-6,-16
-23,-7,-13,13,36,2,-7,-12
-10,-102,10,87,37,16,8,-13
-14,127,0,-8,0,-10,-8,-15
-16,-40,-15,-43,-39,-11,3,-25
26,43,18,-47,-21,-17,-1,20
3,24,16,64,31,14,8,23
-37,-54,-38,-24,24,3,-19,-46
1,18,-11,-17,-16,-15,-7,-55
22,1,3,-33,0,-7,-4,57
-7,4,18,-33,-128,-17,-6,13
-17,-10,1,25,36,15,4,-1
1,-99,10,42,66,13,-4,-23
6,91,-40,-60,-10,-19,-16,-12
18,36,18,-32,-30,-7,2,13
-13,30,5,16,16,-9,-5,-9
9,-61,-51,-1,14,-3,-5,-6
-22,-27,17,5,-23,-3,-6,-10
-1,-52,20,48,47,18,11,-11
35,90,26,-19,3,6,-7,14
-5,-2,-51,-33,-37,-23,-12,-75
15,-16,-2,-10,-18,-11,19,96
-9,-23,5,-14,26,7,-2,2
-18,1,-8,13,28,5,0,-8
-26,6,9,-8,-68,8,7,-36
58,-6,34,9,71,15,15,23
-47,-67,-58,-23,-41,-19,-28,-5
-6,109,29,1,-48,6,5,-59
34,-95,-7,20,-24,2,10,75
-34,-68,-48,-25,-20,-25,-30,-5
2,5,19,16,85,16,9,-11
-53,-89,-7,10,-27,-3,-6,5
39,22,14,-22,-8,0,19,10
14,127,1,-12,-7,-13,-13,-7
-6,8,-7,-29,-2,-28,-25,-5
-20,-5,-44,-7,30,20,7,-15
2,-7,49,12,25,6,-1,-7
-3,-33,-3,30,-29,-8,6,7
-8,-29,-1,-25,11,-5,-7,0
-18,-13,-17,-36,-90,-18,-13,-11
1,-13,7,-1,-41,-13,-4,-17
5,-15,-7,56,101,23,8,12
-6,-21,28,-10,43,4,12,-14
-10,15,-36,-65,5,-15,-12,-29
29,68,53,88,-53,-2,23,61
14,13,-7,57,58,14,13,18
-15,-24,-6,-5,11,-7,-22,-41
-9,-24,11,-23,6,-8,-11,-55
23,14,-22,-50,-30,-21,23,93
2,-9,-13,-14,-14,-14,-6,4
2,36,18,37,36,6,2,-9
-48,8,6,-1,-3,2,-17,-40
11,8,-13,-15,-14,-8,5,-17
39,-25,29,4,6,9,17,11
24,-19,-13,-14,-23,-17,-13,25
-1,11,-16,-26,-16,-12,-9,-12
-32,-25,-12,0,-3,-1,-1,1
-27,-24,11,18,37,6,-4,-2
-8,-30,-4,-12,-48,-5,-2,-76
-11,0,-54,-42,-55,-20,4,28
3,28,25,13,105,19,-2,-5
34,-27,56,56,20,4,-11,-19
1,114,-111,-48,-80,-20,-13,24
-13,12,8,-12,-53,-20,-20,-44
3,-58,-22,4,60,13,7,47
-10,-9,4,8,-24,1,0,-8
-10,-10,-11,-20,-64,-18,-5,-13
4,2,3,4,24,19,8,13
-19,32,26,4,38,6,-1,-14
33,-60,5,72,28,22,23,27
-11,23,-26,-32,33,-17,-21,-12
-8,6,-26,-68,-83,-24,-5,-20
-9,-31,31,87,47,20,10,7
17,-48,-16,-30,-7,0,-2,22
-45,28,54,-12,50,-3,-15,-23
-23,46,-52,-71,51,-15,-5,-37
41,-1,26,127,71,26,22,60
9,-23,-13,-59,-25,-10,-5,-8
-5,34,-3,18,0,-7,-7,-13
-2,-19,-10,-6,6,-7,-6,10
-57,-37,-4,8,59,1,-24,-80
22,21,19,-5,-33,6,3,-47
21,81,-3,-4,-35,13,37,127
6,-17,0,0,-16,-14,19,4
-9,-22,-36,-27,7,11,-7,2
-16,-38,-1,-32,-63,-37,7,-8
13,99,44,26,68,9,-3,-12
0,-118,-18,22,58,-10,-11,-22
-14,-5,-5,37,-15,19,-8,-33
-12,-10,11,32,40,7,6,47
22,-29,-20,-11,-10,3,5,-18
7,31,17,-8,0,-11,-2,15
-1,-46,16,-6,-21,-6,5,-8
-10,-7,-15,-49,32,-19,2,2
-36,-32,-73,-14,-128,-13,-9,-24
41,11,53,54,102,28,11,9
-13,46,-35,-43,-31,-21,-23,-22
-8,10,5,-10,-17,-14,-4,-3
7,-10,28,37,20,13,15,10
-4,12,-17,-9,-15,-12,-9,-9
-7,-54,-47,-33,-40,1,21,26
6,16,82,92,120,16,-6,-9
-10,10,5,-5,-14,-11,-9,-6
3,15,-37,-6,39,6,4,-2
0,-5,-9,21,34,1,-1,18
-5,-46,-5,-3,8,6,7,2
-23,45,-2,-23,-14,-13,-19,-24
-15,-25,35,-1,47,19,-5,-27
61,71,2,21,-3,-1,32,98
14,30,22,35,26,11,-2,-19
-21,-71,-49,-31,-30,-16,-6,-7
2,-19,-11,-10,-20,-10,-10,-19
-16,-3,17,9,15,-2,-21,-66
-18,-32,-23,-8,-2,-1,-3,12
3,28,2,-10,35,7,9,44
68,1,19,-8,-16,4,14,21
-34,58,-9,10,-23,-8,-24,-18
-31,-47,-13,-16,-11,-9,-9,-27
-8,14,6,-24,38,-8,-5,-24
38,5,20,29,-96,4,5,-15
33,46,-17,-15,-7,-3,4,88
9,2,5,40,61,13,5,8
-26,-13,15,21,7,-5,-9,-19
7,-18,17,-31,10,1,4,-6
-7,-25,-39,-13,24,6,-6,4
-12,-24,-28,2,36,-11,6,-17
-8,-21,19,20,-74,-12,-1,22
-4,10,52,-23,-32,-6,-16,-53
7,35,-6,-3,-3,1,9,46
-7,-9,-10,-2,39,-4,-6,0
9,-4,-5,16,28,2,-1,-7
-9,-40,-33,22,-21,-1,-4,-16
-9,34,92,21,13,16,1,-7
-18,15,-35,-68,12,-1,-18,-54
-5,-5,31,77,72,5,2,-4
10,25,-13,18,16,3,11,46
-16,-33,-25,-40,1,-5,-6,-23
42,61,20,-37,-66,-1,12,25
-6,-39,-10,2,-23,-19,2,14
-4,-15,-8,19,2,23,0,0
-22,66,-7,-29,-20,-6,-6,-55
20,-21,-10,27,26,12,10,21
-2,34,2,-11,-36,-2,-1,15
6,-14,-3,-6,5,-9,2,17
-13,-4,-5,-19,-35,-11,-4,-17
17,-10,1,-1,3,2,-8,18
-5,-21,0,-7,10,7,8,40
13,25,14,-10,11,-5,-1,-13
-12,-16,8,12,-51,-12,-7,-17
3,15,5,19,-7,6,-2,-1
-12,65,-3,-21,14,-12,-2,-9
-21,-82,1,-17,8,-10,-10,-28
15,29,13,1,-44,-1,0,-17
24,17,-43,31,25,11,24,96
-10,-8,11,-1,-6,6,4,7
-10,-47,16,-16,-20,-10,-13,-36
14,81,1,-11,16,-11,-1,38
-19,-59,-12,-35,-78,-7,-14,-22
7,42,-16,18,39,18,12,-16
25,63,5,27,52,1,-4,8
-27,-53,-36,-40,41,-3,-7,15
3,-9,-4,-15,-94,0,-4,-47
28,-6,-10,35,9,11,24,-7
-6,-47,-3,8,-8,6,-9,43
-7,36,3,-44,2,-17,-8,2
11,-5,25,10,-22,1,-7,-4
-9,12,2,17,55,-11,-6,-21
15,18,66,-10,-57,-10,5,20
-5,99,-42,15,85,13,-6,-14
-28,-21,42,-10,28,3,-23,-10
28,-32,-16,-7,-19,-6,31,2
21,60,-5,1,-21,-15,-13,4
16,-18,-6,22,55,13,7,55
-12,-55,-32,-18,-42,-5,-5,-10
-42,-20,-20,-29,6,-7,-17,-30
-20,-8,-6,12,-46,9,22,-14
44,19,18,20,-19,-2,3,2
12,16,28,10,51,2,2,23
-11,-11,-3,8,17,6,-3,-11
-12,12,-9,-12,-15,-9,-9,-8
-17,-82,-9,-11,-11,-2,-8,-29
-11,55,7,-13,29,0,6,-48
5,56,4,-34,-14,-9,2,45
30,39,10,61,45,5,8,41
9,-9,15,15,-66,4,4,14
-11,48,14,-9,-3,5,0,-8
31,-60,2,-11,-16,-19,-4,-12
-21,-61,-32,-1,44,14,5,0
7,-39,5,-22,-31,0,5,-3
7,49,-64,19,16,-17,-3,-13
-33,-17,-13,-16,-79,-10,-7,-28
15,42,24,13,29,1,-12,-49
3,2,37,32,-34,-10,-5,5
17,-25,31,35,15,13,29,98
-9,-32,5,-81,-21,-12,-11,-9
-1,109,-9,11,44,-7,-4,-13
-17,-82,-2,23,-15,3,-6,-3
-6,-20,7,42,5,9,-7,-47
19,1,-20,-17,6,-2,7,35
8,-4,5,-12,33,-7,-2,-4
8,102,-5,6,-5,-4,-1,-2
-12,-16,0,-38,-57,-4,5,-2
-36,-8,-47,-35,-88,-15,-15,-19
19,-19,13,69,88,21,3,14
30,68,29,4,4,-5,-6,15
-40,-70,-49,-60,-22,-16,-11,-27
-18,-57,-6,7,14,12,-3,0
49,64,41,8,-24,-12,8,21
0,20,-38,-41,-29,-7,8,16
0,-6,-7,-21,-5,-9,2,17
-11,19,16,56,37,6,-4,-44
-14,-55,23,35,82,22,-5,13
25,12,-8,-13,3,-1,10,38
7,21,-8,-6,-20,-12,-13,-12
-20,23,20,-10,32,8,5,-9
18,-15,-34,-14,-35,-17,3,4
7,11,-3,28,45,0,4,17
-1,-64,6,34,78,24,6,7
-32,-22,35,28,-10,1,-18,-55
-19,35,-33,-75,-46,-17,1,-55
48,49,-8,48,28,22,34,127
0,-15,-21,-7,17,-9,-14,-34
-5,-52,-16,20,-18,-11,-3,-11
-6,-21,44,18,-5,0,9,0
8,-32,-49,-11,0,-7,-4,-19
-4,37,-16,1,42,8,1,1
-13,66,43,-48,-14,-21,-16,0
-13,-1,-36,1,-44,19,18,-4
17,-9,51,9,48,-2,-2,-14
8,127,-1,-67,-128,-19,-8,5
-4,-75,-1,79,105,30,0,-21
-34,-73,-38,-2,-11,-10,-11,-32
-14,-39,17,-16,-10,2,20,-17
62,69,-6,26,39,13,10,70
-2,-17,-39,-28,-34,-21,-18,7
-24,-29,-18,3,12,-6,-5,-14
-26,32,1,-25,21,-7,-8,-35
0,8,34,30,32,0,-16,12
3,-50,4,0,-22,10,-2,-68
12,15,-12,16,18,-5,9,116
-6,-45,-10,-11,19,3,2,12
-18,-1,-4,3,-7,-10,-7,-20
24,127,21,14,55,-1,2,-6
2,33,4,-18,-16,4,1,-7
-23,-12,-12,10,37,-2,-6,-17
-28,-45,12,-13,-1,-7,3,8
22,48,32,-27,-54,-8,-8,-20
34,-45,-54,36,44,4,19,24
10,83,-24,4,19,11,0,2
-11,-15,19,-21,-44,-5,-4,-5
-24,-31,8,19,-57,-6,-2,-5
-36,8,1,5,27,-3,-22,-38
21,-2,22,-5,0,-13,-2,-25
30,-21,-17,-72,-75,-11,2,52
5,-1,11,50,6,7,-3,33
-18,-57,-45,-28,0,-4,-1,-12
3,21,79,30,12,7,6,4
-30,17,-52,-13,34,3,-9,-32
21,-52,54,-5,24,4,0,16
12,16,23,-16,42,-6,-5,9
31,115,16,-7,-30,-3,-3,-9
-4,-116,-60,48,34,12,10,1
-2,-25,-20,-3,2,-4,-8,4
-19,-7,4,-15,-10,-12,-10,-14
-22,-6,-7,-13,0,-4,-6,-10
-13,-37,1,30,57,6,1,0
41,65,33,-19,9,11,11,16
27,12,-43,0,-36,-12,-10,-36
16,22,-1,-21,7,-15,5,81
-18,1,4,-8,-61,-10,-10,-20
4,-11,-5,54,59,9,-1,14
-6,2,3,-6,2,0,-1,-4
5,15,31,26,55,3,-9,-17
-16,-4,-5,-30,-13,-11,-13,-19
-43,-50,-12,-18,18,-1,-14,-53
33,102,20,19,-103,-9,13,70
41,-15,-8,7,14,3,-2,19
-10,-7,-24,17,11,-7,-14,-11
-15,6,7,-5,5,-6,-4,-16
11,15,27,-11,-5,-7,-3,-11
-11,-17,-19,5,0,-3,8,29
-27,-10,-16,-46,15,8,-8,-6
-36,-13,13,22,-26,-6,-4,-51
31,-40,-10,0,5,0,15,32
2,-48,-5,-1,-16,10,1,-38
44,127,10,1,-43,-22,-6,66
-18,-20,-41,-29,18,-12,-15,-25
-6,14,4,-6,-12,5,-1,-34
-3,-15,4,14,-34,-4,9,30
-8,33,12,-8,8,-9,-5,-12
5,-4,16,18,-20,-13,-9,-17
-8,-32,-21,-43,5,-2,-6,-22
-11,59,15,45,59,14,7,26
29,42,6,-5,-21,-9,-11,-5
-9,-96,-33,-40,27,-17,-9,-15
-16,93,8,-21,-96,-1,11,-21
-13,-77,54,56,19,5,-11,-45
21,-38,-51,-20,-19,-5,3,43
1,46,2,-29,21,-5,-2,5
27,-10,3,-36,-101,-16,-1,17
8,-115,-12,60,95,19,-2,1
-1,127,20,-10,-58,-4,0,-17
-12,18,-19,0,19,-8,-4,-3
3,64,14,-52,-7,8,0,7
0,-34,14,42,-64,1,15,-4
-17,-52,-37,-49,16,-5,-10,2
3,-1,12,18,5,-5,-14,-11
-10,-8,7,-6,15,-1,-1,9
27,39,6,31,4,6,1,3
3,85,-12,-24,-40,-3,-7,-7
-15,-57,10,-13,-20,-17,-4,-32
-5,11,-8,-11,6,-3,6,25
-19,-8,10,2,9,-5,-10,-31
12,-13,5,-15,14,-2,-7,-48
45,29,-6,41,-40,15,27,100
9,-43,-17,-10,-17,-19,-6,15
-15,29,-24,-13,40,-3,-21,-64
-7,-27,-6,0,48,7,8,24
-7,5,1,4,-78,8,3,-6
14,-47,8,-20,4,-12,-9,3
-14,-2,-13,-7,2,-10,-2,-14
8,7,3,38,57,28,15,-7
-6,13,-7,-25,-21,-9,-10,-6
-29,-13,7,-6,-11,-12,-20,-20
-30,-14,7,31,29,5,-9,1
16,18,4,15,42,12,9,-50
39,-32,-3,-19,1,-13,1,60
26,127,9,-27,-128,-8,4,-5
-14,17,17,28,36,0,-4,2
-20,-30,-21,-13,-32,0,-8,-71
-7,-94,-39,-10,39,1,6,52
10,-56,34,26,16,15,16,13
5,111,0,3,-34,-16,-13,0
10,15,-22,-46,25,-5,-4,0
-15,-17,20,56,37,14,-6,-35
-11,-17,-11,-18,-25,-2,-1,4
-8,-29,-16,-7,-33,8,6,10
18,47,32,6,18,-6,5,-6
7,32,-38,-45,-36,-15,-15,-5
41,-4,37,20,12,23,16,30
-5,-109,6,0,4,-2,-2,-21
-8,-20,-45,-3,-30,-21,-2,12
-13,-28,-6,-11,31,6,0,9
-33,-50,13,20,3,3,2,-9
48,127,22,42,88,11,5,-10
14,4,-22,-26,-17,-5,5,46
-21,-15,-1,-19,13,-1,-12,-12
-37,-31,4,-19,9,4,0,-49
6,8,5,15,-1,-4,-1,29
-6,-14,-6,-46,-49,-12,-17,-29
21,7,-4,15,-10,2,7,32
5,-13,-15,31,57,9,6,0
1,55,8,0,17,-2,-10,-10
-17,-33,1,-40,-56,-5,-2,-11
16,16,23,21,-48,4,3,-2
20,-28,-18,-11,24,-15,-4,8
-14,94,22,-18,-121,-3,-7,-9
-4,36,2,-8,37,0,8,-36
23,-19,-16,21,25,24,11,1
6,-69,-24,-45,-17,-28,-26,-9
-11,-21,-25,26,36,-2,-9,-17
-9,3,24,-31,-20,-1,15,31
-11,-21,12,33,-38,7,8,24
-14,-117,-20,-27,16,-9,-8,-56
2,5,-1,20,26,18,26,24
20,12,7,44,29,10,-8,-9
25,42,-26,22,45,-2,5,15
-24,6,8,-26,16,-12,-22,-12
4,45,17,-8,4,0,-2,-7
1,-55,-21,-17,-10,-5,-4,-17
-3,-40,-41,-13,-10,-8,-1,25
-24,-43,12,6,-39,1,-4,-17
-12,49,26,-2,2,-1,1,-13
49,118,41,-15,-15,-5,-3,23
16,-57,-14,51,22,7,3,-12
-7,-50,-55,-21,-25,-6,-3,38
-8,22,-5,-67,-34,-4,-2,-5
-21,-1,10,74,-89,7,16,-10
11,-31,-9,-9,23,-6,-11,-31
24,6,1,-43,-13,-4,-4,-6
-2,-41,27,79,53,23,3,12
23,80,-18,-21,8,-11,-6,-10
4,20,-14,-23,-10,-16,-2,55
-15,5,20,-2,-3,9,-4,-19
-24,-51,-43,-31,14,-2,-3,-9
23,20,68,7,-1,7,6,-56
11,12,9,26,35,1,5,25
11,0,10,21,43,8,5,6
0,-23,0,3,74,12,12,-19
-35,-1,-7,-36,0,-5,-5,-6
-20,6,-13,27,-27,-6,-14,7
25,-47,15,2,-16,-5,-9,-23
4,28,-17,-17,-7,-4,0,-20
-8,23,-28,-24,-17,-4,3,11
12,-38,34,54,87,11,6,13
-6,61,-16,-22,-68,-17,-17,-16
-5,-16,-21,23,34,-1,-4,-3
8,-32,1,-13,-25,1,2,8
-15,24,21,10,113,15,-3,-11
16,62,17,-18,-122,-11,-2,-53
16,-16,-22,4,-16,10,17,60
-7,-62,-9,-36,-61,-17,-12,21
11,30,-13,9,60,23,11,-3
2,13,30,-5,12,-6,-5,13
-10,-57,-6,15,-10,2,6,3
-3,-21,-29,-17,-40,4,0,-15
1,50,58,-9,30,1,0,12
-12,62,10,-7,-28,-15,-7,-11
5,-73,22,58,102,27,10,2
13,-36,-57,-20,-54,-18,-9,0
-31,14,-8,-18,26,-6,-4,-18
-12,17,-19,-12,-112,-7,-1,-61
39,6,50,11,6,4,7,6
37,-1,-18,0,32,-1,2,84
2,-9,12,16,23,15,17,1
-11,3,-8,-18,-18,-7,-13,-14
-17,-29,-2,-7,-40,-10,-7,-33
2,-19,-29,-8,40,3,14,5
4,-1,14,19,12,-5,-1,29
-6,-17,-8,5,0,-5,-17,-8
9,-26,8,-32,-10,-6,4,5
8,47,6,-24,61,-7,-6,3
-1,24,2,-8,-128,-15,5,14
-50,-46,-35,53,45,10,-13,-78
14,18,26,28,36,5,-7,-20
36,-30,12,-21,4,1,12,13
12,41,-42,-23,9,-6,-6,55
-10,-36,1,-36,-73,-12,-14,8
15,-85,14,0,-18,8,15,-60
6,94,12,16,89,8,3,70
2,39,-6,-45,-63,-19,-19,-20
-36,-65,-47,0,4,3,-8,-12
-6,-40,7,-4,-29,-26,-14,-25
-30,-29,7,41,67,10,-3,-38
11,18,-16,-48,-76,-15,-1,37
19,95,5,2,12,12,4,20
-13,1,-10,44,51,-5,-16,-28
-20,-58,21,32,30,10,-2,-54
21,-10,-17,-10,-59,-10,7,50
13,-11,-5,24,46,18,8,50
-11,19,-12,-31,-3,-11,-10,-9
-10,-37,11,-21,-13,-6,1,-6
-2,60,20,-7,-28,-5,2,-3
4,20,32,44,-35,6,-6,-23
-19,-40,-50,0,22,-12,-15,-31
-5,-45,-8,-35,-18,-5,13,7
22,25,7,-12,1,-2,7,40
-8,-59,0,6,4,-8,-13,-8
18,59,-17,-1,51,12,3,-3
2,92,80,-4,-1,-6,-2,-25
-53,-45,-49,48,26,1,-13,-45
41,1,33,3,-12,-2,-9,14
36,16,0,-10,-2,4,32,117
-23,-32,-13,-18,3,-3,-8,-28
-5,2,9,-3,19,12,4,-9
-22,20,9,3,-19,-31,-21,-31
-14,-39,-9,2,7,-13,-9,-31
16,17,12,2,-31,7,8,32
-24,-48,-13,-1,4,-12,-12,-5
-21,-41,-12,-49,6,-14,-2,-43
39,77,10,37,8,28,21,-2
22,-12,-26,27,20,10,2,56
-14,-6,-7,22,35,1,-1,-3
7,-8,9,-6,-16,2,3,3
7,0,11,-59,-47,-17,-1,0
-3,-19,-28,32,90,10,-8,-12
-30,-13,-39,-28,-128,-23,-8,-35
9,12,23,35,64,15,0,24
2,-5,20,23,97,19,2,5
-18,-33,-38,-54,-1,-15,-5,-12
-12,-45,32,75,80,28,1,-18
30,127,33,30,26,-5,3,-19
23,-11,-1,-28,0,-16,-1,37
-7,11,-56,-82,-1,-16,-3,11
4,-7,-4,-56,-79,-6,1,3
-14,3,70,106,86,14,7,0
-23,13,-29,-16,-3,-3,-6,-41
12,-63,-11,-14,-18,-8,27,39
10,80,-14,2,0,-1,-14,-27
-10,-13,-16,2,-24,-11,-32,-59
9,-46,-14,-25,-25,4,23,79
5,29,5,-6,-9,-6,-8,-6
12,22,40,32,38,26,26,41
6,-9,10,2,45,1,-2,-15
-28,-34,-31,1,-32,1,-4,-6
17,22,0,-14,-53,-8,2,19
16,-30,-1,-11,38,16,7,-26
-3,21,1,-14,-53,-22,10,-5
12,22,1,24,-7,2,0,14
12,83,14,13,20,4,-2,22
-11,2,-3,-29,-5,-1,1,1
30,-112,-32,-49,3,-3,14,29
-24,16,-7,40,5,6,-17,7
54,127,21,59,74,-1,-6,-72
-10,0,-40,-34,-28,-23,-17,41
-7,2,0,-11,11,-15,-2,-1
-27,-60,-24,-63,-45,-21,-11,-19
-4,1,19,63,62,18,9,8
12,66,41,31,-54,17,10,2
-16,-22,-40,-18,23,-13,-14,-17
-32,29,-67,-71,-92,-13,-17,-32
25,-73,98,63,-1,-2,5,14
7,-12,-6,32,59,12,6,4
7,25,-8,-18,24,-11,-13,1
7,13,0,-37,-23,-3,0,-9
-14,16,-19,-50,-63,1,-5,-22
-18,-24,15,77,44,18,6,-30
-2,-14,-15,-9,-28,-20,-11,-34
-5,-6,-12,-19,-35,-14,2,76
-4,65,14,-3,26,1,-6,-27
-5,-99,-11,-8,-7,-7,2,24
43,46,10,-15,-23,-2,-1,4
7,19,-7,5,57,4,0,7
-13,4,-24,-5,-28,3,8,6
-7,-33,19,14,6,13,-2,-24
1,-1,-21,-10,-12,-6,-4,-9
4,25,4,0,1,-2,11,-12
6,81,0,-5,21,-10,-15,-1
-19,-47,-1,-23,-37,-28,-29,-88
-1,17,29,49,41,30,19,41
6,-34,15,-15,16,5,1,31
-3,28,-53,2,8,-7,-3,-26
1,-8,32,5,-56,2,0,1
-29,15,-27,-10,28,-2,-10,-7
-15,-18,20,19,-8,-3,1,-1
5,-69,1,-32,0,-1,-13,-24
7,21,17,-13,-28,-4,4,-48
35,10,-16,1,24,9,16,94
25,37,-62,-23,53,-6,15,24
-3,34,50,88,-79,14,2,4
5,22,-4,1,40,6,-14,-10
-5,-43,-26,-43,-22,-22,-1,1
-13,-51,13,47,12,5,-5,-10
-16,-27,-22,-17,-72,-14,-3,-24
-7,-49,-16,4,35,0,1,4
-15,8,6,-8,-6,0,-7,-4
0,15,-36,-59,-56,3,12,-21
37,-10,1,-8,40,0,10,21
4,85,7,-6,-51,-12,-15,7
-32,-36,-26,-8,26,0,-7,-22
-33,-1,23,3,12,-6,-15,-15
10,18,18,-29,-25,-8,-9,-74
88,-35,-15,35,-74,-2,38,127
-30,19,-6,-10,-37,1,-4,-20
14,-41,-2,14,32,-7,-4,-3
-20,41,-4,-3,20,-4,-4,-27
-11,10,7,0,-3,10,5,-8
-19,-88,-43,-32,21,-16,-13,-10
-12,-14,22,3,-52,-5,10,-43
-1,42,-9,-29,-37,-14,-20,5
-24,-37,5,24,17,-1,-14,-11
9,21,-15,26,53,-7,8,24
27,-57,19,42,-45,20,16,6
-9,-37,-68,-33,-8,-9,-11,-12
-12,4,27,-9,-11,-14,-9,-6
-18,-3,21,-23,3,-7,-4,-21
-17,34,-39,-13,-5,-7,0,-23
10,-24,60,16,23,12,12,32
16,17,11,30,55,-8,-6,-2
11,13,8,-8,-128,-17,-5,7
10,37,-11,32,90,22,1,-4
10,-20,4,13,28,-3,1,6
-16,-8,9,19,41,8,11,16
-24,-56,-13,-22,0,-6,-9,-3
-23,-14,2,-33,39,-13,1,-12
8,33,31,88,7,22,1,-4
14,30,-28,-18,-52,-16,-10,2
0,27,-2,15,68,5,-4,-8
-9,-2,-1,3,6,-6,-9,10
-11,0,0,-44,-23,-4,-5,-13
-9,-16,-14,-19,-26,-9,-4,-9
-78,-28,-34,-36,54,-10,-17,-27
31,47,38,13,-45,20,10,-80
61,-112,1,38,-13,-11,4,119
-10,6,-51,-18,-4,-8,-10,2
7,-6,11,13,20,5,4,8
-15,-31,-23,-30,-10,0,-2,-18
-25,-38,-12,-27,-23,-6,-4,-19
5,5,18,13,-28,-7,-19,-10
-13,59,11,-37,1,-8,-8,-44
16,37,3,8,-1,7,-9,-18
-1,1,3,17,-120,-3,25,38
-6,5,5,40,30,-5,-3,0
-20,-31,-1,-29,17,-1,-9,-27
8,-80,1,-2,-2,-1,-6,24
-56,-33,-28,5,49,-1,-13,-19
-13,19,9,-23,-58,-13,-5,-91
96,127,23,18,66,11,15,90
4,-62,-27,-21,-16,-8,9,51
-21,-26,-33,-25,-107,-4,-7,-21
-25,-27,-14,-13,-14,-5,-11,-29
-23,-28,9,33,27,6,-7,-16
-14,-26,-7,-6,-14,-23,-3,-10
-5,11,-5,-15,-30,-12,-13,-1
10,23,28,80,97,17,-6,-10
-3,-10,4,-44,-28,-7,10,-18
20,37,15,34,110,34,10,45
6,-44,-63,2,-62,-11,-9,-7
-14,-2,24,-1,7,-8,-12,-15
-9,75,-9,-8,18,-2,3,-13
-2,-22,6,13,41,5,3,10
1,-28,-9,-21,-67,-22,-9,-17
38,17,10,-2,51,6,-7,2
10,80,-35,7,-25,0,-12,-7
13,-12,6,4,31,-8,10,24
-46,-36,-13,-9,3,1,0,-17
1,27,10,15,-37,0,-5,-24
30,43,-4,-7,26,-6,-3,0
17,-115,-2,-20,-60,-9,8,50
-6,-9,-9,16,18,6,-4,-45
-4,-45,-21,9,102,8,9,44
-21,6,4,53,63,19,-2,-12
16,-8,20,-10,-4,13,6,45
-23,-45,-39,-64,-49,-32,-16,-44
4,53,12,1,-1,-8,-2,12
21,43,32,79,56,17,6,17
-12,-2,-53,-11,-21,-10,-15,-29
-14,-4,-4,-14,0,2,5,0
-7,3,7,-22,-18,-14,2,5
-42,-66,-23,-9,1,6,-9,-20
6,43,20,-10,9,-2,-10,-47
1,-21,-20,0,32,-2,15,40
-51,-2,-1,-19,28,-5,-17,-25
30,-14,-9,19,-73,-6,-1,24
34,3,3,-25,13,5,14,21
-9,-8,13,21,66,11,-6,-12
-20,-16,-33,47,78,23,-7,-16
-16,6,-37,-17,-5,-3,-13,-26
0,-22,78,16,18,-13,-6,3
-15,-16,-94,-35,-4,-14,-11,-20
-13,-27,79,-5,-46,-7,2,14
-35,-15,-25,-1,32,-4,-1,-28
29,-25,37,24,40,0,6,4
-13,-29,-30,-39,13,2,-2,-16
-23,-46,-27,-15,-52,-5,-6,-17
41,32,8,-4,-22,1,12,17
12,45,14,58,35,15,8,33
-7,-1,-4,-2,13,-4,-6,-6
-28,-45,-10,-11,2,-5,-23,-42
-33,-11,-5,-2,12,-2,13,-52
29,75,24,-31,-54,-17,7,61
23,16,0,37,31,21,-2,19
-35,-90,-32,-23,28,1,-13,-21
11,66,9,33,47,11,2,-1
9,16,-7,11,-23,-8,-5,-39
-20,16,21,-19,-52,-17,-7,1
-6,4,-6,5,-5,7,9,6
-12,-56,-13,-21,-25,11,-3,-22
-5,-43,-26,-20,-41,-8,-6,-1
-44,-37,8,15,10,-1,0,-9
66,-116,37,-26,66,-7,-7,27
-6,27,-53,-55,-128,-1,8,-59
2,102,-29,0,34,0,-5,31
-14,-5,3,-10,23,-3,-2,-15
1,4,-26,-10,-36,-10,2,8
-10,-7,35,14,32,8,0,-5
-10,-33,-14,47,126,13,4,-10
3,3,18,-5,-58,-4,-6,1
-31,-58,-32,-32,8,-10,-18,-15
5,-41,-4,2,-39,6,20,-12
21,26,-2,14,-1,-4,-2,-5
19,51,52,55,5,9,6,83
1,2,-2,14,-17,-14,-5,9
-7,0,-6,-26,-36,-2,-3,-15
-22,10,-11,-10,-10,-7,-12,-29
-21,-33,8,21,9,0,0,-17
-5,-117,-13,2,36,6,17,13
18,86,2,1,-107,-5,2,3
23,28,-16,-6,22,-5,-10,-10
-16,-9,-31,-16,4,-1,-4,-16
1,14,18,1,-8,-8,-8,0
-14,5,8,-4,15,-5,-3,-9
-20,-63,-42,-52,-16,-6,-6,-5
-15,-30,-2,25,5,10,6,-12
20,17,67,18,7,-1,1,27
-14,44,-12,2,-6,4,0,-4
19,17,16,-19,-26,-10,-10,-23
-14,-24,-14,5,12,-12,-17,-25
-4,12,-7,24,24,1,-11,-17
-31,-12,0,-3,32,8,7,-6
-9,-14,21,-11,-53,-9,-10,-13
56,50,14,4,26,9,6,-60
38,-58,-10,-10,-47,-7,13,127
-2,12,-4,13,52,-2,1,3
-23,-33,0,-53,-72,-10,-8,-26
4,-12,18,89,109,15,5,0
-17,16,-7,10,-25,-6,-12,-17
5,36,19,-35,-9,-3,-10,-41
-21,-38,-17,-8,-23,-12,-7,-10
-11,-6,-18,-68,-98,-8,5,27
25,-11,-8,7,-28,2,10,32
6,18,23,47,50,12,5,-2
-22,-28,-15,-10,-3,-8,-13,-9
-30,-8,2,-15,14,-10,-7,-2
18,42,34,-15,17,7,0,-13
20,3,-49,-45,-108,-20,-3,-6
-11,-30,-23,22,28,-1,-6,-15
-14,6,3,-9,-5,-5,1,-3
-10,-29,-4,-13,2,0,-4,6
-1,13,4,-5,1,-5,-9,-24
-6,21,4,27,35,2,1,7
-6,-31,18,-17,-8,1,25,-18
-5,9,-13,-2,25,4,-3,19
-14,-24,9,-43,-4,-10,-21,-4
7,27,8,18,16,5,3,-74
34,24,-9,25,-5,7,11,88
-8,3,-6,14,59,7,5,23
-4,-7,8,-12,18,-1,1,-13
8,13,-14,-10,-14,-1,-2,-2
-6,-10,3,-60,-29,-21,-16,-24
-24,22,-14,34,-33,-3,-17,-30
3,-39,51,39,63,14,3,-30
8,35,-8,-16,-27,-1,11,44
4,-89,38,11,23,7,1,14
-14,-30,-78,-43,-13,-18,-18,-21
1,19,1,-21,-55,-8,-4,-5
-9,28,19,15,10,15,-1,-18
-9,2,-3,9,7,2,1,-1
-4,8,20,6,7,-9,0,5
1,9,16,3,38,10,7,-4
-3,-10,-11,2,14,5,2,-4
-17,13,-17,-1,19,-4,7,4
-20,-47,-5,-32,-55,-13,-9,-10
59,106,-15,5,63,9,-6,-40
-17,-14,70,-11,-33,6,8,36
29,-41,24,39,14,0,14,84
-13,4,-45,-8,-22,9,-6,-32
-2,27,-12,-58,-37,-6,-12,-7
4,-12,0,52,25,0,14,25
-31,43,16,18,32,13,10,7
-22,-128,36,10,14,-2,0,-28
33,127,-28,-32,-39,-15,-14,-6
11,4,-30,-4,3,-7,-2,2
-9,-10,23,4,55,11,-1,-8
-10,-13,-1,-8,-11,-7,0,-4
-6,0,12,-2,-16,1,-1,-11
-4,-4,5,19,4,3,4,-1
-7,-8,1,-27,-38,-10,-6,-8
-6,-12,-1,3,46,7,6,-3
-10,-4,-4,1,12,-5,-6,-19
4,-22,-2,-4,-39,-6,-7,17
-40,-3,-8,8,47,8,10,-21
11,-1,6,3,-38,-6,-3,-7
37,46,-2,-8,33,12,5,-35
21,-8,-26,-40,-51,-12,2,101
4,-32,10,23,7,8,-2,-3
-34,13,-23,14,32,-9,-16,-22
-14,-1,18,-6,3,0,1,-36
37,62,10,48,13,-1,8,10
-15,-2,-43,-8,-2,6,-6,-3
-15,-15,0,30,7,5,0,-7
-3,-6,6,-4,19,-1,-8,-7
-52,-26,5,-30,1,-8,-1,-7
18,0,39,17,27,6,3,-16
10,27,-38,-45,-50,-13,-12,-15
-13,-61,-22,12,-38,7,-3,3
-5,19,-2,1,-5,-20,-2,0
-2,4,-6,-9,1,5,1,5
-7,5,9,6,75,3,-8,-10
-5,2,9,-23,-78,-8,-11,-6
1,-10,16,3,54,4,-5,-5
21,48,6,11,15,2,18,33
-1,-10,-3,24,-10,2,-2,-6
1,-10,3,10,8,12,0,6
-3,3,-3,-4,16,8,0,-3
-19,-6,0,5,28,-4,-24,-22
-16,3,-8,-26,6,-2,-2,-48
22,3,-1,-17,-29,-10,6,33
10,6,3,45,25,16,11,20
-31,-51,2,-12,-72,-6,-5,-31
12,19,14,20,59,8,-11,22
-6,7,-12,-21,-9,-13,-19,0
-5,-21,5,-9,-24,-10,-17,-39
1,26,8,-4,-23,-4,-3,-5
-12,11,28,10,0,0,-7,-76
47,-24,-28,-18,9,-1,28,127
-18,-17,-10,-33,1,2,-3,7
22,93,35,67,76,24,-1,-23
13,-56,-5,-7,-5,-20,-9,-67
6,-60,-29,-24,-13,-25,-11,20
-28,-68,-31,-12,67,3,-3,13
-22,-57,24,19,32,16,1,-16
62,127,2,31,22,2,2,-14
-10,34,14,6,-36,-6,3,28
-34,8,-52,-47,7,-19,-16,-16
-10,-20,47,-21,-99,6,13,-5
-6,-21,19,48,58,14,-7,-10
-4,-5,-2,-2,2,2,-11,-4
-5,-7,0,-33,-4,-13,-9,-2
2,-12,-26,-27,-46,-8,4,-1
9,-6,-1,67,121,9,-2,5
-45,-23,-17,-24,-8,-15,-16,-15
-15,-4,-9,-12,-110,3,9,-53
35,29,0,47,85,19,12,33
38,17,7,-7,10,7,12,40
-24,-45,-21,-11,-1,-6,-10,-10
8,6,-11,-10,-46,-10,-3,-18
-41,-5,-8,-16,-17,-12,-13,-20
-20,21,52,-12,-25,-2,0,-43
16,-70,-5,44,69,14,8,32
15,-3,-18,-12,21,2,2,66
11,21,-50,-38,-37,-27,-18,-59
-11,0,-9,-1,-20,-2,6,0
-11,6,30,3,-6,-1,-9,-1
-16,-35,-22,-10,-1,-10,-5,-20
-12,-1,3,-6,14,8,-7,-43
3,-2,22,17,-6,5,4,-14
51,16,22,2,-16,11,5,56
-1,-12,-12,-15,-2,-29,-3,8
-19,-33,-11,-8,-11,-9,-16,-11
2,14,-9,-52,-19,-12,5,-20
18,42,16,64,1,23,3,8
-10,2,-8,-46,36,-3,-7,9
-12,-4,-1,54,-63,11,6,-12
-6,-45,2,-17,18,2,2,-13
-18,4,-19,-59,-50,-26,-15,-9
-15,-40,-9,58,127,21,2,-7
-15,-19,-15,40,27,7,0,-7
-6,-17,34,-1,9,-1,3,7
13,68,23,-11,4,-2,-3,19
22,-37,-11,-21,26,-20,-17,-29
-40,-18,-32,-50,-65,-12,-6,-27
23,52,-16,11,40,11,9,26
69,16,5,21,-14,11,16,54
-12,-19,10,-13,-11,-13,-6,-9
-25,-22,-30,9,20,13,-5,-15
-14,-13,9,12,-1,-8,2,-6
-45,0,2,-3,3,-1,3,-40
26,-10,1,-12,31,7,-1,5
18,25,18,-6,-19,-13,-6,-26
-41,-83,-21,13,92,20,18,88
7,24,0,3,23,4,-1,-11
25,11,-21,16,-56,2,-8,-15
-11,-16,-23,-18,-47,-22,-10,-7
-19,16,6,19,78,3,1,-9
-36,-29,-3,-66,-23,-11,-6,-28
-7,9,23,84,72,19,-1,-17
77,42,30,26,-43,19,32,82
-5,5,-2,-1,25,-9,-2,0
9,49,4,-34,-87,-19,-15,19
-16,-15,7,13,37,6,1,-36
3,-10,-32,10,-15,-3,2,2
30,79,14,2,-11,-4,-2,30
-17,-64,-13,-19,9,-6,-6,-14
-25,-38,-44,-9,-13,-11,-10,-6
-16,10,14,37,68,13,-6,-16
28,5,-6,-6,9,-12,0,7
25,-28,-9,-3,-10,4,3,24
-11,-41,-10,-12,-1,-4,-5,-18
-31,-11,-1,-13,-39,1,-3,-19
-23,89,14,16,12,2,-13,-10
45,-6,-16,-14,-10,5,-5,-60
40,-18,12,28,12,6,14,127
-7,8,-7,48,54,1,-5,-1
-41,-25,1,-36,-33,-10,-7,-27
-18,-8,2,-3,-36,8,-6,-23
21,25,-2,12,10,-7,-7,-28
10,0,-15,-29,18,5,18,42
-30,0,-20,26,49,4,-6,-23
-14,-27,13,19,42,14,10,5
16,-29,9,16,19,0,-2,-10
-18,21,-11,-5,-13,-8,-7,8
-24,10,-17,-32,-12,-6,-6,-19
-42,76,25,-18,18,-3,-1,-9
28,-128,19,5,-17,9,16,16
3,-55,-94,-25,-20,-3,-10,-7
-9,31,16,45,5,-5,0,3
-46,-34,-2,-8,1,-1,-8,-6
-47,-33,11,-5,1,-4,-12,-49
66,70,16,3,12,8,1,8
13,3,-28,2,-42,-12,-1,25
-11,30,11,-15,-24,-6,-4,12
-19,-18,6,-45,-4,-7,-13,-68
20,-26,17,87,41,30,16,43
9,73,11,35,62,10,1,19
-6,-2,14,-34,-27,-5,-3,-1
-21,-16,-18,-14,-48,-9,-2,-13
1,-18,-2,13,31,-5,-6,-9
-32,-24,-9,-5,15,4,-6,-11
-8,20,18,0,-28,-3,1,-42
43,73,-13,-37,-1,-7,5,52
-6,-54,-3,-30,-62,-16,-22,-6
1,-41,-9,55,28,3,-3,-8
-1,-16,-26,-1,-36,2,1,-1
-33,-27,4,-13,-19,-5,-10,-10
-32,-12,-26,-17,36,-20,-14,-36
23,-46,16,-11,-124,-7,13,25
62,123,-4,21,30,0,6,6
2,51,1,-10,-16,-4,-10,9
-8,-3,15,-28,13,8,5,20
-25,-11,-32,2,-83,-12,-6,-20
-9,-27,-1,22,56,18,-2,-7
9,-18,18,-23,-29,-5,-17,-57
-5,1,-28,-17,7,-7,0,72
-12,-1,-3,9,-7,-3,11,-62
-1,21,27,-39,10,11,18,88
9,-14,-23,5,-42,-2,-4,-13
6,-5,1,68,45,3,-3,-24
-8,8,18,1,36,0,-1,3
-10,-55,-20,-19,-21,0,1,-6
2,-1,3,-24,-7,4,-3,-9
-19,23,-28,18,-18,-16,-9,-28
12,-14,0,-25,48,-5,-5,15
7,39,7,-21,-41,-20,-2,1
-5,-32,12,46,2,21,11,-5
-29,-9,-18,-8,11,-10,-22,-9
-33,-8,2,0,49,-4,-6,-46
57,-38,-7,-104,-128,-13,18,69
11,36,9,84,75,26,14,-6
30,15,-6,42,14,1,-3,5
-10,-19,2,17,-26,-1,-4,-14
-17,13,-11,-23,-16,-15,-7,31
-8,-17,1,-14,0,-4,-15,-24
4,-3,2,-4,-1,-8,-7,20
-32,-36,-8,-9,-1,7,-2,-18
-17,12,24,-4,-3,-4,4,-8
12,-35,34,-16,5,-8,-14,-17
0,43,-25,-32,-32,-18,-16,-6
-11,-13,-56,47,-15,8,4,-10
-9,8,-22,-29,-20,-1,-5,-9
-29,-38,22,-20,26,-24,-12,-14
-2,7,11,-50,-128,-9,7,2
42,12,13,89,97,39,17,38
-5,12,20,3,4,-10,-7,-1
-2,-20,7,-17,7,-10,-7,-29
-3,14,-6,-14,11,-1,3,14
-1,0,-11,-13,-26,9,7,37
3,-3,-3,55,58,11,-1,-38
0,-13,-16,-15,-8,-2,11,96
3,-22,5,-9,-11,0,4,2
-12,-41,-8,6,25,3,28,-42
19,14,-11,-11,-21,3,-1,42
13,52,18,-7,-17,-10,-11,19
11,-12,0,18,44,4,2,7
-17,62,4,-4,14,7,-7,-27
-12,-24,13,-7,-24,1,0,-8
36,16,-26,-21,-46,1,10,6
-20,-94,-25,-5,-97,-11,-9,-22
9,21,1,12,35,-4,-4,12
15,68,-1,-10,-41,-7,5,12
-17,-27,12,5,-111,8,9,11
-11,-6,1,-19,-27,-9,-7,-14
-4,17,-13,9,80,3,-9,-6
-9,-21,15,-44,-67,-13,5,-18
-33,-74,-36,-2,-62,-16,-3,-16
22,18,67,26,6,2,0,-6
23,127,32,4,-11,-11,-2,33
-8,-23,-36,-40,-49,-18,-11,-9
-19,-4,-2,11,58,12,3,-7
-22,-29,-14,-33,-25,-23,-14,-19
-30,-37,-14,17,-59,17,7,-36
0,82,41,42,107,8,-1,-12
34,-25,11,-5,-12,-2,-7,-1
-1,-65,-69,-33,-29,-23,10,56
1,-12,4,-10,-1,3,3,-17
-1,7,-11,-50,-8,-5,-15,-1
-11,-12,3,-2,-31,-11,-9,-15
3,31,12,18,9,4,9,-11
-9,-22,18,20,48,10,0,-1
5,-11,-15,-19,6,-5,-14,-12
13,-9,14,28,6,9,8,44
-3,40,6,4,1,5,-8,-4
2,6,-23,-11,-11,-4,1,-12
13,-36,-27,-28,-20,-14,-10,-10
-19,5,1,7,5,2,-14,24
-42,19,13,-9,-2,2,-6,-89
26,-123,52,43,44,26,41,45
115,127,1,-50,-93,-14,4,105
-19,-11,-27,77,68,-13,-15,-22
-30,-71,-31,-13,-25,-6,-13,-23
-24,-33,-2,-5,10,-3,-1,-11
-19,-13,-21,-34,-12,1,-4,-19
12,-28,-6,-24,0,1,1,4
6,115,33,-31,-128,-2,18,-1
-6,-76,-6,15,38,-1,5,0
-10,-17,-63,-14,-88,-22,-17,-16
-5,33,18,33,72,6,-8,-8
-3,-4,22,-7,20,-1,-1,0
-16,-22,-15,2,3,0,5,-1
5,4,5,0,24,-4,4,-4
-12,-26,-12,-56,-77,-5,8,0
17,37,-11,27,-30,-11,-11,-18
20,-6,11,14,12,5,-1,36
-17,-2,-7,13,15,4,-8,-13
-25,-28,-8,-15,-20,-5,-4,-11
-46,-19,-2,5,80,10,-3,-7
36,-16,9,-46,-119,-13,7,-21
64,101,-10,-20,0,-2,22,89
-9,22,-4,9,107,13,-13,-13
-7,-57,17,-53,-128,-13,3,-20
14,-14,-19,127,103,32,17,41
-23,-9,-15,4,8,-12,-14,-21
-9,2,-12,-13,8,1,-6,-12
-10,11,23,-17,3,-8,2,-7
7,-18,10,-10,23,1,-10,2
-16,20,-10,-52,-44,-20,-4,-29
-4,1,4,30,57,15,18,14
28,2,4,23,-31,10,-4,27
24,17,3,-11,-9,-3,-13,1
-15,33,7,-18,-29,-7,-4,7
-17,-48,6,17,31,1,7,-46
4,-41,-11,2,14,2,7,4
8,-10,5,-12,17,-4,-18,-2
-35,6,-22,-54,-20,-13,-17,-41
0,4,7,59,-43,22,18,-9
27,76,16,-8,-10,-10,-9,-6
-17,-50,17,-23,-8,3,3,4
-5,-79,-48,-88,-90,-25,-8,10
-12,25,12,90,73,19,7,-60
-11,35,0,-10,-41,-17,0,52
11,10,13,81,106,25,10,25
11,-3,19,-30,3,-11,-10,-22
-15,-83,-66,13,-2,8,11,-5
15,8,59,34,9,2,2,23
-7,53,-34,-32,-15,-3,-8,-5
-5,64,-4,-2,-8,-2,-9,-16
-33,-17,3,1,72,-13,-20,-23
-1,-30,-10,-14,-109,6,12,1
34,8,1,11,10,5,22,26
-13,-47,-15,-15,-9,-8,-6,12
-4,10,0,-2,-1,-1,-10,-42
26,40,3,-5,17,-10,5,29
-10,-37,-1,-17,-11,-6,11,30
0,16,4,-19,-19,-14,-10,-7
-13,15,5,32,9,6,5,-11
-25,-34,3,34,30,4,-12,-11
6,-28,-23,-13,-26,-15,-24,-27
41,-7,16,-20,36,8,11,30
-30,18,-10,15,-1,-5,-1,-31
-1,18,-4,21,-35,1,8,23
30,5,14,3,-2,-3,-4,9
-9,-5,-11,-4,8,-7,-10,14
-19,-17,2,-21,-39,6,-4,-7
3,-69,0,39,19,-3,-5,-25
-11,86,0,-23,-8,-9,1,-79
7,-4,-2,-22,-45,-5,19,120
-25,-27,19,11,21,3,0,-17
1,14,-37,-37,16,-12,-12,-12
18,-2,-58,-52,-43,-14,1,28
-20,10,-6,46,-34,9,-3,-21
2,-9,88,15,11,4,1,0
-4,-44,-28,-50,-28,-23,-6,-10
-5,3,0,84,83,34,12,-23
-30,68,29,-4,9,-4,-5,-15
7,-53,-23,-12,-22,3,5,14
25,-38,-14,1,24,5,0,19
-10,6,-10,-39,10,-15,-14,-1
10,-8,7,-20,-41,2,9,1
-13,13,22,84,127,32,12,-3
-12,-3,5,4,4,8,-2,-9
-11,-58,-23,-58,-15,-12,-5,2
29,123,17,23,-39,-6,-3,22
-12,44,-3,-8,1,-18,-11,-16
-7,-44,0,-15,-6,-4,4,-17
-10,-2,5,-24,-24,-6,-10,8
-7,15,7,-51,-34,-12,-19,5
19,-42,-2,31,-52,3,20,-10
-21,-53,-38,23,46,3,-4,-3
-11,6,-30,-8,18,-10,-12,-17
-6,3,-18,-26,5,-11,-14,2
9,-15,44,-17,-85,4,14,1
-18,-3,-8,15,5,-1,-6,-12
2,17,1,1,3,1,-5,6
22,4,32,8,8,1,-15,-29
-22,17,10,-2,9,-1,24,30
-1,-35,-43,-17,-40,-13,5,18
24,51,32,17,31,7,8,43
-10,-38,-1,-42,-24,2,-9,-7
-19,-58,-26,7,-6,-3,-11,-24
-27,-16,-28,-5,-24,-10,-1,-36
42,115,24,-9,-31,-7,1,35
-3,-28,-15,18,26,0,-3,3
-9,2,-7,0,5,0,-2,-16
-12,-18,7,-15,7,-10,-5,-13
-51,0,3,-2,-8,7,2,-11
19,9,17,-2,-41,-2,8,-13
37,-6,-22,-3,-3,-12,-1,37
-37,-35,-24,-55,27,-7,-8,8
11,27,-3,-10,-117,-9,5,7
20,24,25,90,99,33,17,-18
-17,-11,14,-9,-27,-10,-11,-6
-3,2,-2,-3,10,8,-11,10
-5,10,20,-16,-5,-4,-1,-5
-17,-5,-6,-6,42,3,-1,-19
-6,-21,14,-19,21,-2,-2,-11
-2,-5,-15,24,-53,2,2,2
1,3,-33,-23,-1,-8,-10,-2
2,-37,3,23,47,-6,1,-10
-3,42,41,36,-56,15,10,-7
-15,-7,17,-4,7,-8,-12,-15
-8,-17,-1,-21,4,-5,-2,1
0,-66,-61,-34,-7,-31,-7,-2
-9,51,6,-16,11,-6,-16,-60
-10,-4,19,61,3,7,7,86
-3,-69,-11,16,17,-1,-7,-28
38,69,4,13,-5,7,22,48
-5,25,-35,-40,5,-19,-10,-17
1,-46,-15,-26,-28,-9,-12,-8
-16,-8,-1,-10,-13,-6,-8,-27
-13,-40,11,3,-7,-4,-4,-14
3,-31,9,13,14,6,6,-1
-4,42,-16,-12,13,3,2,33
21,81,18,17,61,-3,10,0
14,-31,6,-4,-66,15,6,17
-9,-63,-15,-2,-20,-28,-16,-7
-11,-83,-12,-5,-4,-13,-12,-3
5,41,-41,-25,67,6,-2,-13
-15,13,30,54,-10,6,1,-15
-24,-36,0,-3,29,1,-7,-12
26,19,2,-17,-14,-7,-4,-22
-5,2,-1,10,-21,1,10,38
26,19,-5,14,47,6,-3,-3
12,7,0,2,2,7,3,2
-22,-8,-11,-20,-23,-9,2,32
8,3,-7,-40,-7,-11,-4,-9
6,-28,16,21,28,2,3,19
-10,-14,-3,12,56,11,-5,-12
-24,8,7,4,-40,-5,-20,-41
-33,11,-33,-11,-38,-13,-25,-77
14,77,40,10,19,4,11,107
34,-43,0,-62,37,-11,7,26
6,-19,-57,-32,-128,-24,-9,6
32,-50,-18,32,53,8,1,-2
-22,-1,1,20,39,5,2,-2
-21,-53,-18,-23,6,-11,-21,-21
12,31,38,12,12,2,12,17
-6,50,-25,-7,-18,-15,-19,-36
-13,13,3,24,17,7,-2,-32
13,29,-5,4,25,1,1,15
-13,-19,4,-17,-46,-16,-1,1
-16,-7,-12,6,69,8,0,-4
-5,33,18,-13,-94,-1,-6,-24
-2,-28,5,20,9,4,2,-9
28,-6,-38,-24,-23,-17,1,39
-45,-17,4,24,59,7,-3,-32
-12,108,5,9,-68,-16,-5,-8
48,-15,11,59,127,27,3,24
-12,-8,-7,-33,-11,-15,-18,-23
-11,-34,-10,13,56,-11,-5,-7
-33,64,10,-52,-60,-6,9,5
0,-70,10,71,-27,8,-4,-22
-20,11,-7,-19,-8,-10,-7,-24
-3,51,0,-12,5,-4,1,11
12,17,8,-12,-21,-8,-5,13
-17,-15,0,11,40,3,-4,-7
-21,-11,-24,-33,-2,-13,-6,-10
3,-8,-7,-3,-78,12,-3,-56
-4,28,12,6,-8,-7,-14,41
7,48,2,-44,-17,-9,-8,7
34,-11,-5,28,39,-5,4,-10
17,20,-26,-2,-4,-3,14,73
-29,-30,-8,-36,-14,-11,-9,-28
-33,-22,-10,-16,-25,-12,-13,-25
23,-9,5,33,40,14,12,19
7,10,12,-5,4,-2,-7,-22
-2,8,-26,-45,51,-10,-10,37
44,102,50,69,-123,25,19,10
-43,-59,-39,0,-31,-22,-25,-30
-17,-23,-28,-27,12,-7,-5,-10
-12,-2,4,-14,9,-3,-1,-3
-8,5,10,-10,23,0,0,2
-18,-24,-6,-16,4,-6,-15,-10
-15,-10,-11,10,47,0,-19,-116
21,36,4,-1,-9,-1,11,56
31,11,17,-14,-35,-5,17,94
-6,-5,-16,41,76,29,18,-11
13,-4,10,-5,-56,-16,-4,-18
9,8,-17,-11,33,2,4,66
-6,-7,8,23,6,13,-4,-19
-22,-15,0,-25,10,-9,-13,-21
-22,-23,-22,-50,-61,-26,-16,-10
22,5,23,72,34,30,15,-10
-4,12,19,51,76,6,-9,-11
0,3,-14,-41,-25,-9,-3,-1
-5,12,-23,-27,-18,-13,-6,-8
-16,14,0,-3,2,-9,-13,-9
-17,-32,3,-15,63,-1,-8,0
-67,17,-29,22,-23,10,23,-43
80,9,56,86,39,20,4,-11
35,-28,-38,-19,-14,-14,-6,93
3,-3,-8,-13,-6,-4,-4,-7
-13,-3,20,-7,9,-2,-10,-6
-17,-31,15,-10,-26,-12,-6,-8
-16,35,4,-17,27,2,-8,-11
-27,13,-32,-10,72,4,-9,-32
-10,-79,-59,7,-111,3,12,10
10,-121,14,29,46,20,17,29
1,127,24,6,1,-8,-11,-16
-9,59,-11,-21,1,-7,-12,-9
-8,-35,-18,-20,-15,-19,-16,-15
-12,16,12,-13,-17,7,6,-53
-9,-30,9,0,-25,-6,0,54
-53,-57,-22,-92,4,-7,0,-37
61,22,25,127,49,41,15,19
25,11,28,27,8,-5,1,28
-6,-15,-34,-28,-29,-12,-11,-8
-8,-22,-5,-9,3,-3,-5,-4
-14,-13,-12,-18,-6,-3,-6,-11
0,2,7,-19,-12,-5,-2,-11
0,-42,-6,6,61,7,-2,-15
-7,36,15,-16,19,-3,8,-20
6,24,29,3,-79,17,21,28
5,13,-24,33,-4,-3,-4,8
8,-1,0,11,35,0,9,32
-10,-26,-16,-25,-37,-4,-2,0
-16,-25,-11,-41,7,-17,-18,-30
-10,0,11,55,39,14,5,-13
11,8,-11,-8,-16,4,7,13
-7,32,45,-4,23,-8,-1,10
0,13,6,-30,-52,-19,-14,-28
25,-42,-25,35,29,16,10,6
-15,-30,-20,-6,2,-8,-11,2
-17,-21,-19,-30,40,-3,-10,-16
-26,-32,-8,-34,-20,-7,-9,-15
-15,65,-12,50,62,25,-2,-98
52,19,28,3,54,-2,13,106
14,-24,2,-43,-71,-12,-4,29
28,127,29,74,85,17,12,-17
-4,-36,-34,-2,-8,-17,-19,-18
-19,-57,-25,-9,-7,2,-2,-17
-14,-8,-9,-13,-7,-9,-3,-10
-26,-16,0,-14,24,-8,10,-26
-11,-31,-38,8,-52,2,-6,-27
-11,27,74,36,103,24,0,26
44,42,-14,-16,20,-9,2,-15
11,1,59,-1,-41,0,3,27
-10,-25,-36,-32,72,-7,-11,-8
-3,12,-1,28,-88,10,7,-5
-13,-1,-1,-3,17,-4,-3,-8
-1,-71,-22,-47,-37,-6,-5,-1
-21,27,-8,-14,6,-8,0,-3
37,73,27,79,58,26,17,24
-10,-15,-21,-2,22,-7,-19,-13
-17,7,5,-10,-12,-12,-5,-42
-6,-10,-9,-13,2,-4,3,18
-42,-61,6,-5,11,-5,-6,-26
24,-29,18,-11,-36,-9,-4,28
21,92,-15,13,-5,0,-6,-21
-6,67,26,-9,-11,5,1,-19
-6,-34,-17,-2,-32,-4,-1,13
-22,-67,4,-22,5,-3,-11,-19
14,-23,-10,-17,-100,-7,11,12
30,85,-37,-32,-22,-6,10,16
-9,36,2,-18,-11,-3,-6,-5
-26,-28,-4,54,112,6,-16,-20
-23,-10,4,10,88,13,1,-34
12,51,19,-16,-20,8,6,-27
23,-15,-22,64,74,7,7,53
-5,-53,27,-21,-13,-13,-14,2
-12,-12,-4,-1,21,3,-4,-14
-20,-8,1,-17,20,-6,-9,-10
-11,9,37,-30,11,-28,-21,-11
-8,12,11,8,-86,32,18,-71
36,1,-2,17,10,3,6,77
-7,-23,-13,9,8,2,-6,-50
-11,5,-7,-13,7,-7,-9,7
-5,-5,-12,-10,-4,-2,5,3
-11,5,-7,-13,7,-7,-9,7
-5,-5,-12,-10,-4,-2,5,3
-13,-16,-6,-15,-23,-6,-5,-3
-31,-24,-1,4,20,-5,-10,-7
