Channel_1,Channel_2,Channel_3,Channel_4,Channel_5,Channel_6,Channel_7,Channel_8
1,-3,-5,-9,-10,1,15,4
-9,-1,-5,-9,19,0,12,13
-1,-1,-6,-31,36,-18,-38,-20
-4,-7,-8,-26,-128,-22,33,31
-23,-19,-2,21,70,32,-9,-31
21,28,6,2,2,-25,-57,46
-6,10,-2,-13,-1,1,7,-52
-23,-6,-3,-7,-33,0,-6,-62
-43,-27,-12,-104,56,-26,14,-108
51,15,11,104,-128,33,-13,90
1,-1,8,41,101,29,29,83
-5,3,0,-15,-9,-17,-25,-16
-4,2,-4,-31,24,-7,-4,-15
-7,-8,-2,-1,-46,29,27,-57
-1,-13,-26,-50,-64,-51,-23,30
14,7,9,79,85,41,6,33
0,-1,4,-20,18,-18,-14,30
17,3,-1,-17,-34,1,-15,-1
-26,-19,0,-30,-12,-11,-35,-69
3,19,7,29,124,15,5,14
-10,-4,1,42,-14,-6,13,-21
5,-1,1,11,67,32,4,-9
18,-7,-25,-4,-14,-21,2,51
-10,-20,-7,-1,54,9,-3,-20
-13,-7,-4,0,-97,-13,5,-38
-5,-5,4,16,72,14,-21,-4
6,13,-9,-51,0,-26,-17,-6
9,-5,-9,37,10,40,61,13
-13,-22,-11,-21,34,-1,-22,-1
-15,-8,-14,-83,-127,-51,-13,-17
22,28,34,127,127,102,47,15
12,14,-21,-11,49,23,10,7
-3,-7,-15,-17,-13,-25,-31,27
-22,-11,-6,-64,-53,-45,-73,-73
-5,7,10,44,21,49,15,-22
42,-7,-10,-13,-18,-24,-26,57
-11,4,4,35,127,68,-5,-74
14,4,-12,-31,-57,-20,17,60
5,-2,-2,2,-122,-32,-47,-43
-20,-30,-16,20,77,1,-30,-3
-7,18,-12,-68,41,-7,3,10
41,34,33,57,-128,21,31,36
-10,-16,-2,-3,33,-1,-7,-8
-22,-10,-31,-69,76,-7,47,-56
-7,-3,10,3,22,5,-27,-25
2,-12,-1,-29,0,-12,19,18
-6,-8,-9,-20,-18,-3,-12,-54
-12,1,7,-17,-116,-36,-3,19
16,-5,28,3,-21,-1,-10,-18
20,-1,9,-13,-11,-5,28,75
33,17,-18,-7,-128,-70,-27,93
18,2,-6,5,-5,3,-12,16
-13,-2,-5,-33,70,-2,4,-7
-8,-8,-5,26,-122,5,38,-16
14,15,8,15,6,13,19,89
-11,-18,-5,-41,-16,-9,-31,-62
-14,-17,-7,18,-122,-9,9,5
-1,11,9,46,104,33,4,-21
-16,-17,-18,-24,16,15,36,64
15,14,-12,-49,-30,-35,-36,23
-20,2,44,34,3,7,0,-18
12,22,20,10,-23,-4,-4,20
8,10,-18,-26,-66,-18,26,-21
-14,-38,-32,18,78,26,42,-50
4,-8,-33,-37,-11,-27,-35,67
-10,-1,26,-11,-75,-17,-20,-42
32,31,22,74,70,38,38,104
-9,-3,-10,-15,80,16,8,-30
-8,2,16,-6,-90,-16,-26,-7
-16,-9,-18,-89,113,-25,-57,-41
-7,-19,-31,31,-128,-64,40,-20
8,15,-2,43,127,49,14,-3
-14,1,12,-21,-25,-12,-20,-46
-22,-5,-8,-45,11,-17,-27,13
14,-26,-40,-3,-128,-7,43,32
8,-5,1,19,65,33,-5,-31
-11,5,-4,-32,-69,-66,-77,-27
-17,1,-34,3,-13,14,-12,-60
24,28,67,-30,-87,-31,24,60
12,16,25,93,127,24,-15,86
-3,0,-14,-12,54,6,-10,-46
8,-15,-17,-38,6,-9,-6,21
-5,0,5,2,-21,-5,-13,-9
-8,19,-28,-71,-5,-16,28,-21
-19,-8,29,116,127,56,11,17
8,4,22,-13,-9,-8,9,-5
0,-12,-10,-2,36,12,17,-43
-6,-8,-5,-12,-45,-13,-5,-2
9,-11,-12,-2,8,-1,-4,37
1,1,-13,-12,51,4,-6,-1
-9,5,2,-61,-118,-29,-16,-61
9,13,19,86,-2,39,38,58
-7,-14,-39,-33,-3,-17,-1,15
-18,-10,28,14,71,34,30,-47
1,-3,-22,28,36,-4,24,-27
-9,13,1,18,2,-4,-12,74
0,-16,-8,-37,35,-5,-16,-20
16,-16,-24,-19,-119,-25,31,0
4,14,69,23,127,52,3,21
-6,-16,-58,-68,-96,-45,-24,-46
-2,-8,-25,24,9,1,-11,-6
-12,-11,14,26,-9,34,17,74
-11,28,24,66,125,23,-2,-68
19,-4,1,-7,7,-15,7,38
-7,-23,-23,-30,-16,-9,-6,-4
-29,-28,-27,-34,35,-4,-19,-39
3,5,-18,-32,-128,-43,-7,-5
10,14,21,16,42,20,10,78
-19,-4,-21,16,59,18,-9,-24
5,-23,-28,-5,43,8,5,30
29,19,68,-1,1,-13,-37,-38
7,18,15,-7,-25,-6,35,36
-8,-8,-13,-7,55,7,-11,-28
-20,-16,-35,6,-1,5,13,-5
-33,-2,-38,6,-60,13,3,-19
69,1,52,10,-3,5,23,86
-3,4,-25,-15,-4,-34,-24,3
5,32,50,30,85,19,22,21
-12,-13,-25,-40,45,-9,-39,-13
3,-4,-4,-19,-128,-66,-29,-19
-7,-9,6,24,127,98,28,19
-33,-19,-53,-31,48,-8,-14,-77
2,1,33,59,-97,15,27,53
8,32,48,56,110,36,-8,-17
14,-11,-29,-9,-113,-22,8,6
3,-23,7,-16,37,-16,-48,6
-17,-3,-18,-44,-35,-37,-42,-21
0,11,-1,13,84,37,8,-20
2,-2,-12,-30,-51,-28,43,45
-5,-15,-18,13,47,34,11,-1
-22,4,7,9,22,-27,-63,-12
32,6,8,16,-80,29,86,79
34,4,-3,-1,-9,-8,4,-31
-15,-2,-7,-11,7,-3,-2,-42
-44,-43,-28,-18,-5,-13,-48,-46
9,25,5,4,3,-6,2,42
28,0,61,17,10,14,29,-26
-1,-4,-36,-16,-8,-24,-45,-16
-7,25,33,-7,-11,-2,-10,-33
-16,3,-14,-10,54,19,15,-1
-26,-27,-20,-98,-71,-61,-35,-35
-4,-12,1,62,-128,-14,8,-58
18,10,7,127,127,99,43,53
-4,-13,8,-15,15,1,20,29
-18,-25,-22,-23,15,3,30,-63
7,-7,-10,-24,31,-13,-24,40
-9,0,-6,-29,-113,-26,-29,-77
-9,0,18,37,9,19,34,44
16,-3,-19,3,-3,0,13,49
9,12,71,-21,33,-6,-35,26
-5,8,23,46,110,21,-14,-42
14,-1,-36,-18,-57,-10,18,49
-23,-24,-30,-32,6,-12,-24,-65
-9,-11,-6,-16,-90,-11,45,22
15,0,-2,30,3,16,11,44
-7,-3,-15,8,-36,-2,24,-41
-12,-6,-1,1,73,29,-13,-5
-21,-22,-29,-96,10,-88,-101,-35
21,8,-22,51,-128,13,36,30
-11,3,24,25,80,11,-10,10
28,19,-7,-14,36,-8,-36,23
3,-19,-12,-14,-47,-19,-20,-28
-20,-5,-13,-38,-58,-27,-20,15
-5,-5,-7,-10,-110,-17,16,-26
-1,1,-6,6,-128,3,4,52
-4,-5,-6,41,-21,-4,-40,-28
-22,9,-12,-8,64,6,-22,1
16,-26,8,-32,-32,-29,-44,-12
21,-2,-19,-7,-51,-7,10,33
-29,12,-28,-25,25,1,-13,-88
7,14,68,36,91,38,16,73
-8,-4,-13,14,-37,-6,-31,-41
5,11,10,-15,-21,-22,11,-15
-31,-15,-19,-30,-72,-24,2,5
12,5,-11,44,122,33,25,-12
41,-2,12,-11,-21,-21,-10,85
-21,5,11,-6,10,3,0,-41
7,-1,7,-42,38,-29,-50,4
-7,4,22,16,-107,10,37,-12
15,23,33,38,100,5,-76,-22
-31,-28,-29,16,86,49,10,-128
6,8,6,-31,-11,-26,10,48
3,0,12,19,41,32,40,7
-9,-4,4,10,-16,21,16,-15
-13,-4,-10,-14,-18,-26,-10,-21
5,-3,-50,-65,42,-18,-9,20
-6,-28,2,15,-128,-14,4,-9
-28,26,60,46,127,35,7,-128
27,2,-3,-12,-19,15,71,74
26,-9,-46,-1,-88,-35,-66,40
3,23,37,-9,-15,-6,-5,-4
-2,3,-27,-8,30,4,-3,-6
-18,-19,-13,-16,-55,-14,-2,17
-12,-16,-5,-10,105,15,2,-43
-11,-2,10,-47,2,-1,10,9
1,11,11,127,115,39,11,-6
0,3,-20,0,-49,-1,-2,-30
-21,-19,-21,-14,12,-17,-23,-44
25,-4,17,-10,35,14,24,100
14,8,-24,11,53,0,-14,-29
-23,-9,-36,-94,0,-30,-15,21
5,10,-41,59,-9,30,16,-28
-8,-9,77,-4,41,-5,15,-6
-3,-9,-10,51,-15,37,1,42
0,24,83,23,33,-2,-50,-120
15,13,-7,-33,4,-11,23,19
26,7,-13,-19,-32,-22,-34,86
-4,-13,-18,8,11,5,-6,-24
-10,-7,-11,-29,-49,-24,-17,-12
-23,-5,-2,-4,-50,10,-25,-40
13,2,-4,28,127,67,22,44
-9,-8,5,39,-106,-5,4,8
5,3,4,13,24,15,15,15
-10,-2,-2,-25,-39,-24,-48,-25
-7,-15,-25,-23,20,-7,-22,-62
-5,-12,-5,-17,12,3,28,52
-1,7,-31,18,13,9,-3,4
21,-1,26,-16,-28,-8,16,57
-18,-3,35,18,122,42,29,-57
-1,0,0,35,-7,19,72,47
-2,0,-22,-22,58,-19,-82,0
17,13,-3,3,-46,-22,-7,18
1,-8,-4,10,46,-5,-10,-1
-19,-1,-22,-41,-17,-14,-4,-12
-9,-8,-25,-29,87,2,11,-23
-15,-11,15,42,108,29,-15,-42
-5,-5,-47,8,-94,-8,3,57
18,64,91,55,101,24,1,10
52,41,29,-6,11,-23,-37,-1
-17,-18,26,-16,-2,-7,-31,-8
-11,-23,-34,-27,4,-1,6,-30
-3,-9,-40,-39,-10,-33,1,11
-6,11,21,8,30,-2,-31,-6
-28,-12,-15,4,20,23,-2,-91
-26,-4,-29,26,-47,-3,14,4
2,-16,38,-12,61,18,12,55
33,21,-6,-10,15,-41,-69,-39
16,17,7,51,-65,28,30,82
-3,-6,-8,7,55,23,3,-7
-15,-8,-11,-14,14,3,9,-22
-4,-2,-10,-29,-39,-29,-31,4
-19,-3,-4,-1,29,1,3,-82
-14,-5,-11,-54,18,-20,1,-11
-8,-12,21,10,-128,-28,32,40
10,1,13,53,121,20,-2,5
10,-2,-43,-11,-9,-21,-40,-5
-11,11,26,-38,34,-11,-18,-56
8,19,63,2,-92,-15,9,-5
-7,-30,-46,7,9,9,9,-25
-18,11,-20,-2,-16,0,26,-26
-24,1,11,-34,60,-5,-63,8
30,18,-35,-2,-128,-21,-15,1
39,5,57,11,-86,-10,56,127
0,-2,43,10,65,26,12,24
-17,-9,-19,-13,25,10,-11,-9
-10,5,-28,-100,-77,-63,3,-47
-18,3,32,88,127,69,4,-22
16,6,20,63,-42,1,-60,-8
-6,-4,-17,-12,57,-1,-8,12
-27,-11,-6,-13,-6,8,16,-89
10,-3,-13,-68,-95,-52,-30,67
6,-10,1,62,53,23,-6,24
-12,13,22,8,69,18,-12,-51
6,-5,-19,-28,10,-3,27,26
2,0,-11,-79,-33,-24,4,9
2,8,27,124,97,54,41,37
-35,-21,-2,2,23,20,26,-88
8,6,-15,-21,-48,-52,-91,-16
-7,4,22,-3,-13,-5,-5,2
-5,3,9,-12,-21,0,-4,-2
-10,-10,-43,-25,-65,-28,-49,-4
-14,-12,10,20,40,11,16,-42
14,42,59,4,26,0,4,26
-3,-14,-7,-24,-43,-16,-7,1
9,-15,-36,20,2,5,-8,-40
-21,1,35,-27,25,-9,21,-28
32,16,-23,-9,-128,-22,30,97
20,24,0,33,21,12,-2,9
-19,-14,0,13,127,20,-11,-31
-18,-8,-7,-20,-120,-6,-7,-10
12,-1,-16,32,80,45,55,9
-7,-29,-30,-15,47,7,-6,13
15,26,1,-48,-61,-39,6,8
-8,-2,-4,19,22,15,-43,-19
-9,-2,13,6,54,-5,-23,-15
-14,-5,-4,-9,-2,-7,8,-14
-4,1,-13,-19,22,-1,1,-34
-8,-14,-23,26,41,21,16,18
-11,-1,16,-4,-26,-26,-30,-41
1,12,17,13,-45,-22,-23,9
6,-10,21,-10,39,19,18,-24
4,-18,-7,-11,-116,-18,-9,19
-12,17,25,39,104,23,-7,-6
-3,-4,20,-9,8,8,8,-6
13,13,-14,-29,-34,-14,3,6
21,-4,-28,10,38,28,52,85
1,-17,-19,-14,83,23,22,-58
-29,-15,8,-76,-128,-69,-79,-65
5,37,-6,90,127,86,16,75
-3,-18,-3,15,-128,-5,11,10
14,-18,-27,7,29,-3,0,22
-6,6,63,-47,63,0,-15,-8
-31,-25,-31,-11,-128,-50,-25,-55
-14,-5,-7,33,99,28,20,-5
35,11,-24,-28,6,1,14,30
-11,-5,4,-19,58,0,-28,4
-2,0,1,-12,-128,-22,-6,-23
-6,11,93,11,31,-1,-2,-23
-21,-43,-24,3,-54,-8,6,-15
9,-3,-37,12,23,11,0,31
-10,-7,-4,-2,16,7,3,8
6,1,-11,-16,-35,-10,1,-11
3,11,18,10,76,27,39,-32
1,-3,-5,-15,6,-12,-42,-4
-19,1,-33,-71,-68,-31,-19,-109
18,6,4,92,127,33,60,68
28,11,7,52,86,17,-23,11
2,-13,-13,-28,47,9,15,23
-43,-52,-92,-31,-128,-81,-37,-21
-15,10,44,44,127,84,44,-18
42,19,4,-5,-15,0,3,30
-9,54,80,-5,-56,-19,-3,5
6,-26,-21,-17,4,-5,40,-6
-29,-46,-56,-7,-72,-1,-24,-31
-22,-2,-14,-3,-12,-3,-24,-8
24,1,17,-35,-33,-21,-34,-9
8,11,-14,3,-52,-19,-19,6
5,0,0,40,69,23,-18,-3
-38,-36,-35,-45,94,30,73,-30
0,-9,4,-2,-128,-15,13,32
11,7,13,34,89,6,-34,16
25,9,7,101,127,67,60,122
10,25,14,-17,-6,-17,-38,-39
-12,-19,-2,-30,2,-11,-13,-15
-25,-20,-46,-83,31,-19,-1,-46
-23,-19,-29,-12,-128,-34,49,-1
14,23,52,41,69,2,-57,-11
-23,15,6,68,127,85,59,-88
3,-20,-15,-19,44,-8,-3,27
39,3,4,2,-37,-13,7,127
-13,6,24,-3,-82,2,17,-8
-9,-3,-6,3,20,10,9,-4
-16,-20,-23,-40,25,-15,-7,-19
-39,-23,-32,-28,31,3,-20,-128
36,6,-32,99,-2,16,18,67
9,-3,35,-21,26,-1,-19,-33
18,15,10,40,28,11,8,93
4,12,50,5,23,15,22,-22
-13,-2,-45,-54,-104,-50,-14,-9
-11,-18,-23,-20,-128,-6,-43,-60
21,-2,-15,-10,-124,-32,-18,67
-10,2,9,-7,-3,-6,-1,21
-18,-2,4,-18,8,-16,-12,24
-15,-31,-24,-53,-69,-30,-9,-87
23,31,4,56,-42,12,-2,16
-4,0,53,1,-1,-7,-20,-19
6,-5,-22,-12,12,-3,-7,-13
-35,-2,-13,-38,25,3,28,-9
6,-20,-27,15,-128,0,21,18
16,-4,26,-4,39,-22,-6,3
3,8,-48,-31,-59,-26,-20,19
25,37,77,88,127,55,19,30
-26,-6,8,-11,-56,-15,-38,-46
-19,-26,-16,-80,-69,-40,7,-33
6,7,-13,49,127,32,-8,9
2,1,-16,-64,-128,-67,-17,14
-17,-15,-19,84,127,56,57,-9
2,-19,-7,-6,113,4,-16,3
1,-10,-8,-29,-29,-22,1,-28
-2,0,1,-12,127,49,19,7
35,12,14,21,-49,-13,24,86
-24,3,14,-2,47,1,-32,-50
12,14,5,3,-28,3,6,-34
2,8,-3,-68,-128,-38,3,-39
-10,3,8,108,127,96,25,50
-5,-38,-19,15,-35,11,-16,-28
37,9,-19,15,-8,12,35,45
-9,-15,25,-8,-36,-15,-28,-3
-31,-8,-2,-25,36,-12,-45,-128
-17,21,-3,-4,-99,18,88,127
44,-20,-22,9,-36,-55,-128,26
14,6,-25,-1,50,11,3,50
-17,5,2,-21,32,-3,-9,-29
1,1,4,-37,17,-36,-19,-7
-6,-7,-49,81,-18,42,45,-8
-12,7,41,-37,26,-16,3,-5
-16,-8,61,35,127,56,-1,-61
-5,2,-4,51,-10,24,22,3
-19,-36,-38,-28,-111,-47,-50,27
28,18,1,-11,23,-8,-20,0
6,-3,-16,-17,-54,-23,6,-14
-23,-10,-1,-13,-24,-11,-9,-59
-26,-6,-13,26,127,36,21,42
30,32,5,-22,-28,-10,-12,-26
22,-5,-6,4,-41,4,30,127
-32,-27,-42,-52,85,-19,-4,-37
-4,-23,11,-13,-128,-61,-53,31
-15,-1,-11,39,102,16,-35,-22
4,54,26,1,63,9,-9,-23
-7,-9,-14,-40,2,-22,2,-39
-14,-19,-13,20,-80,27,29,0
1,-16,-23,-5,-14,-15,-24,-8
-9,29,-22,-59,-89,-68,-43,-12
15,-5,46,59,27,78,59,6
-1,-10,17,8,17,15,111,35
-5,-23,-56,-31,-14,-25,-64,-3
-5,0,-22,-14,12,0,-27,-12
-11,8,0,0,11,20,17,-18
6,-15,12,-2,87,8,0,11
-17,-23,-25,-21,-99,-25,-10,-2
-7,20,13,-6,-118,-1,6,-48
41,49,72,24,16,-22,-4,106
-20,-8,20,-5,-36,-4,-7,11
-1,-14,-26,-41,-29,-19,-24,-21
8,11,-6,17,28,9,7,-17
0,3,2,17,-40,3,-9,-17
-16,-3,-22,-128,-19,-55,-28,-30
11,-7,-3,127,127,105,51,32
-21,10,3,26,-33,-4,53,-9
-12,10,70,18,37,-13,-37,-10
-2,-18,-21,-13,-7,-1,-2,-57
15,0,-30,-24,-1,-9,0,9
10,13,9,-9,20,7,14,-21
-5,-9,-22,-43,-63,-57,-1,57
11,7,1,35,127,67,34,68
-18,-11,-18,-11,66,4,13,-32
11,-6,-5,-27,-70,-29,-21,49
-22,8,10,32,3,16,0,-91
8,12,-9,9,59,35,62,80
-20,-17,-2,8,76,-6,-31,-48
-5,-33,-60,-27,17,4,-32,-22
-19,30,25,-5,-119,-40,5,10
10,30,127,56,40,32,41,38
30,-21,-9,0,30,-3,0,-13
-11,10,-22,-21,-1,-8,-14,-10
-17,8,-24,-23,-38,-26,-18,-7
-5,-6,-25,-10,-22,2,3,-15
2,-2,-2,-4,-7,4,16,40
-8,-13,-12,-8,-4,1,-10,-1
-15,-5,-5,-9,30,-23,-21,-26
8,7,14,-2,-96,-14,2,0
-1,-4,-12,-8,13,8,-10,-13
-18,-13,7,41,127,36,41,-43
25,-7,-25,-20,49,-35,-70,53
5,3,5,36,-95,31,31,38
2,11,13,20,-48,-10,0,-19
-25,-45,-39,-31,127,15,15,-28
-44,-32,-20,-76,-83,-75,-104,-108
32,57,75,67,-128,-17,24,109
45,-19,39,18,37,10,37,49
-1,-11,-42,-19,-7,-11,-16,-25
-34,-10,-29,-33,22,-8,-4,-25
8,-12,-29,-32,-104,-36,13,36
21,11,-11,4,-13,6,21,32
6,4,3,18,26,8,0,41
-15,-8,5,-24,7,0,-11,2
-28,-11,-13,8,-9,5,27,-79
5,14,4,-13,-25,-42,-93,18
-6,-5,-6,-27,5,1,-6,-1
10,5,-2,-46,-30,-26,5,-1
-3,-9,-40,11,-128,-15,-49,3
-6,4,60,32,-9,7,28,19
40,8,-27,24,28,14,7,44
-17,-33,-27,-21,27,-12,-23,-27
-6,7,20,-2,-45,-5,14,13
-12,-1,-10,-43,-124,-50,-31,-57
-35,-11,25,-29,127,4,-19,-60
61,20,12,127,127,107,80,88
13,-19,-23,-22,98,6,-15,-4
-10,18,-26,-36,-128,-50,-29,-23
-12,-18,5,18,-109,3,33,48
12,14,10,-8,0,-8,-3,32
1,0,17,-11,3,-8,-22,-57
-21,-32,-47,-38,45,17,47,-51
-5,-21,-16,-95,-128,-111,-85,11
3,23,16,127,127,73,-6,20
3,16,-9,-1,16,8,-7,15
-10,-10,-14,-31,-38,-23,-14,-31
-15,-5,9,-44,-71,-20,-34,-46
2,-15,-36,-4,-23,-7,-36,20
15,5,7,-1,-27,-5,3,19
6,5,-5,-5,14,-4,11,19
-29,-3,6,-4,23,-3,-16,-57
8,4,6,2,18,21,65,83
21,6,4,-27,10,-37,-26,5
-4,-4,-52,25,-113,-4,12,12
8,30,33,13,38,3,-17,16
-19,-3,23,2,2,-10,-2,-11
-4,-5,2,-4,5,-3,3,-44
27,-27,-17,-45,-18,-58,-84,41
-20,-21,-33,-25,-128,-14,11,-37
21,24,8,35,127,14,-8,87
3,2,7,-10,-109,-20,24,-7
-15,-6,-20,-26,11,-3,-11,-13
2,-8,-22,-1,-99,-21,1,5
-4,-8,44,-18,98,-10,-3,14
-1,9,18,-42,-128,-30,-3,-24
-31,-6,8,4,-128,-30,4,-33
32,4,7,69,28,44,55,83
-8,-12,-27,-23,35,-10,-27,-5
-27,-9,-42,-33,-17,-1,27,-40
-21,-2,51,-19,-63,-18,27,-25
48,24,3,9,114,-11,-65,33
-3,-18,-31,-17,-95,4,38,-17
35,19,24,11,75,13,15,67
-17,-13,-20,-12,-89,-16,18,-49
-6,-2,-18,-18,14,1,-8,20
-18,-12,-10,-12,-101,-14,35,-20
-11,6,0,-34,45,8,13,-7
13,-5,25,-16,66,34,29,30
15,18,15,62,-128,-24,22,39
-16,4,-1,-5,27,-13,-26,-35
-22,-18,10,6,51,14,22,12
4,12,34,-67,-57,-34,-7,-6
16,3,5,64,92,46,-8,-16
-4,2,-9,-26,2,-18,1,19
-7,-15,-25,-61,-71,-63,-66,-25
2,-5,3,43,95,82,57,24
-6,-2,6,-27,52,-1,-29,-36
-7,-7,-15,-63,-128,-100,10,3
2,10,6,127,127,91,15,0
-22,-3,9,-17,-102,-16,4,-21
-5,-13,6,21,-128,0,1,-31
5,2,-20,-8,-39,-17,7,9
-10,-10,2,-14,3,2,-9,11
-13,-15,0,-29,-101,-33,45,-2
13,17,25,10,-1,2,-9,8
-12,-4,-8,-4,58,15,-1,-63
-7,-24,-11,-13,-77,-31,-26,37
-7,18,11,18,39,14,22,-47
0,1,-12,-18,-8,-11,11,70
-16,-20,-11,-31,-79,-45,-62,-61
18,-1,-9,10,-75,19,31,30
-22,2,-6,-25,68,33,33,-64
8,14,14,11,-43,-17,-8,29
-7,-11,-5,-4,73,-7,-38,5
-18,-15,-29,-1,-128,-14,18,1
0,-6,9,-22,105,12,24,-78
5,-13,-52,-3,-112,-7,21,37
9,3,95,24,126,19,-5,30
-20,1,-46,-44,-1,-2,16,-43
14,10,22,18,2,-1,-23,16
-28,-11,14,8,89,24,5,-41
5,0,-9,15,-8,-16,-21,8
-4,-4,-7,42,115,32,17,16
-15,4,11,-60,59,-8,-16,-12
-3,2,8,36,-80,0,0,17
15,-19,-13,-13,5,-6,4,-11
-22,-22,-34,-50,-99,-48,-36,-66
-17,-12,-19,25,-12,33,6,-82
-7,22,24,-2,-124,-25,19,44
23,1,-4,-3,-6,-8,-17,60
-3,-4,6,19,23,-9,-17,-33
5,9,-2,14,40,21,41,25
-9,-6,-13,-18,-41,-18,-21,-56
-12,-12,-22,-20,44,-17,-47,-9
-11,-11,-22,-65,-100,-22,34,-41
28,21,6,66,115,10,-18,17
-6,-10,-3,18,77,42,27,-15
8,-4,-5,5,-10,9,18,52
-16,-7,30,8,4,-6,-19,-33
-15,-4,-20,-11,-3,-1,11,-20
-8,8,55,-3,23,16,91,-7
12,-13,-10,-25,-77,-32,-28,86
-23,-8,-14,-31,103,22,-17,-31
5,5,-1,45,16,10,-1,5
-4,-2,-11,10,-128,-27,17,-30
2,-11,7,51,113,33,-2,27
-1,-10,-16,-32,-30,-32,-12,-19
1,10,25,4,-11,-10,-18,-8
-3,5,21,43,127,72,36,12
6,-2,0,-20,-35,-20,2,-7
-21,-7,-20,-49,24,-28,-39,-23
5,0,-8,-21,-92,-27,15,52
15,4,8,101,-2,35,-3,-8
5,-9,-52,-65,-32,-37,-45,-1
4,0,48,6,37,19,23,5
-15,2,4,25,16,26,-4,0
-9,0,31,-7,1,-3,5,-34
12,1,11,-37,30,4,29,-37
15,-25,6,11,50,11,19,125
-15,1,-16,-17,-128,-27,-3,-23
15,15,16,-41,-39,-66,-56,-1
52,11,32,54,127,56,31,88
5,8,-3,69,127,69,29,57
-14,-5,-19,-19,9,4,-6,-33
-8,-15,-32,-12,-16,-9,-7,-10
-13,1,25,-2,18,-11,-16,-34
-21,-17,-50,-46,56,-5,8,-28
-12,4,63,65,-80,16,11,-11
22,3,-38,-4,50,-19,-48,28
-4,8,58,-24,-65,-22,-6,-5
-11,-8,-4,27,77,41,27,-40
9,-2,-33,3,18,-12,-45,35
-24,-17,-17,1,32,-7,12,-43
-26,3,19,-1,24,6,-1,-31
17,-5,-22,-5,2,-9,-17,16
55,19,-39,-16,-55,-26,-20,102
-1,2,38,-25,-1,-11,-24,-5
-22,-6,6,24,-11,2,0,-33
-14,-6,-10,1,65,15,22,-46
-14,-1,-6,22,-27,18,40,22
26,-9,0,-52,31,-45,-42,39
6,12,7,26,-128,-5,21,1
0,3,-2,25,19,8,10,5
-29,7,1,-40,21,-29,-31,-49
21,1,-1,23,-35,4,-9,7
4,1,6,-58,127,8,30,-35
15,-9,-7,-4,-128,-16,-16,57
-12,0,0,77,14,40,-7,7
-4,3,14,41,41,12,3,-41
8,10,12,-15,6,-8,-1,16
-7,-12,-12,-30,-5,-11,10,-3
-27,-6,-21,-33,-69,-22,-32,-32
8,12,6,-22,127,9,15,24
-7,-3,31,58,118,36,-28,-34
-4,-8,-11,-29,-8,1,43,-18
37,10,-5,2,-84,-20,5,107
-16,-20,-48,-5,-51,2,-13,-72
-17,-11,25,6,21,13,-13,-67
-6,3,-10,-54,-112,-30,11,54
28,20,16,24,-82,4,16,48
2,5,-15,49,27,26,0,-34
-20,-18,-28,-12,14,1,14,-1
11,-13,-49,-23,23,-1,-12,-35
3,3,19,-31,-60,-33,-3,37
10,24,30,33,60,39,0,19
-3,15,29,12,28,-5,-16,37
1,-28,-41,-29,-41,-10,22,-23
-30,6,36,-44,-128,-43,5,-11
9,8,19,63,42,61,28,79
14,-8,-6,29,43,17,-7,5
12,5,-7,-12,18,-11,-27,-6
-19,-15,-16,-23,-6,3,8,32
-6,-10,-17,-12,-48,-10,-7,-34
9,5,-2,-7,-13,-18,-8,12
-19,-6,-7,12,19,23,12,-51
-1,1,7,-6,-60,-29,-20,32
12,9,-3,8,98,21,22,21
-15,-9,-17,-101,38,-31,-24,-94
8,9,18,105,-128,15,12,87
-30,-24,-14,-15,18,-18,-35,-43
11,4,20,-27,97,1,4,11
-16,-2,13,40,4,54,29,-83
17,1,-9,-22,-35,-16,63,27
1,-15,1,-17,-34,-25,-57,21
28,1,-1,17,-64,0,28,76
8,16,-15,-13,-10,-3,-11,-25
-16,13,26,-11,-15,-6,-2,-28
-10,-3,-19,-39,36,4,-5,-15
-27,-5,-8,-13,-28,-6,1,-52
8,-3,-7,6,-98,-12,-6,0
10,4,69,9,28,0,-22,54
9,5,9,20,127,59,25,-41
-39,-23,-12,7,-98,7,10,-93
18,-10,-15,38,23,-12,-41,45
20,5,6,5,54,3,-36,34
-27,-4,-8,-43,0,-18,1,-25
17,-7,-18,-26,55,14,2,23
-12,-5,-17,-25,-128,-58,-42,-32
22,16,25,40,107,43,13,-6
-10,-8,-63,38,71,35,48,-12
9,-22,-17,-2,30,1,-12,57
18,23,85,-16,4,-3,0,-25
-28,-3,-5,-16,15,-12,9,-21
14,1,-46,-19,-70,-8,-59,-11
27,42,21,24,1,10,-15,36
-26,-14,-7,-7,45,-6,-21,8
-12,-31,-7,-11,-128,-25,-15,-110
20,22,-19,4,89,7,22,30
14,33,17,-29,-108,-17,41,59
17,-19,-28,51,66,33,8,70
-6,-16,-6,-11,4,-10,-30,-44
-26,-21,-12,-122,19,-50,2,-6
-8,-6,4,63,-101,58,32,-8
25,-5,1,94,24,28,24,33
-13,3,-5,5,30,25,69,-25
0,-4,-22,-55,27,-29,-27,4
19,12,1,-9,-128,-27,-58,20
9,8,9,21,76,17,0,37
-19,-23,-21,-19,-28,-11,-2,-47
-32,-19,-23,-35,49,1,-43,-104
-12,-19,-15,-5,-128,-39,82,52
34,26,64,22,118,12,-22,-67
17,3,-2,-1,28,-5,15,114
-6,11,-14,-20,-1,-14,-47,-26
-13,-18,25,-15,59,-2,-33,-59
-12,-14,-39,-13,-128,-42,-16,27
3,12,9,27,127,10,-23,6
-3,-8,-6,0,-104,-7,5,-41
0,-2,2,-15,19,-15,-19,-42
-21,7,-8,-105,-128,-44,14,48
2,-9,15,127,127,106,40,24
30,-8,-2,2,0,6,12,6
-31,-1,-23,-19,-10,3,-30,-43
23,5,13,-91,-2,-33,-1,55
22,2,-14,74,64,17,33,51
-8,-11,-11,-15,66,15,0,28
-2,20,24,15,-19,-16,-22,-10
-7,9,5,6,51,16,14,-39
-2,-1,2,-14,-6,7,47,61
-17,-5,-22,-24,18,-6,-13,-76
-2,-3,5,-8,-52,-23,-33,47
-22,-3,33,11,-24,6,10,5
-19,-24,-10,-13,-25,-27,-24,-102
7,5,-29,-65,-128,-70,-49,35
18,-10,10,71,127,79,50,10
-19,-13,-21,30,90,23,-1,-73
-3,-6,-2,-9,-17,-5,-2,4
-17,2,-12,-24,-15,-15,-42,-57
-41,7,9,-38,-83,-49,-25,-58
29,11,-2,33,-43,48,51,73
5,4,-4,-70,-128,-56,-27,-25
4,11,8,88,-108,26,0,-8
-31,-37,5,6,45,-8,5,-28
28,-10,-30,-33,1,-23,-38,81
2,6,-17,-20,-39,-16,-13,3
-14,5,37,-30,31,-18,-28,-55
-10,-20,-35,8,-6,43,82,26
-5,3,1,-33,-45,-37,-2,0
18,28,-1,-21,-107,-15,-3,34
6,11,29,125,127,97,26,-19
-3,-24,3,-3,-3,-4,7,23
4,3,-21,-24,-5,-6,-11,-52
-8,-11,3,-28,-7,-21,9,26
3,-9,-4,11,-16,-1,24,-34
-26,-31,-16,-11,-11,-4,-19,-6
-16,3,-23,-43,8,-12,-35,-69
11,24,5,-22,-6,-43,-30,-9
14,33,-11,35,-128,-10,0,-31
-5,-31,0,44,127,20,15,35
19,9,11,-5,36,7,37,-5
-17,-22,-13,-32,16,-17,-23,24
-40,-9,-23,-52,-64,-22,-22,-93
17,0,-3,20,127,37,11,16
16,-4,-9,48,-60,6,31,8
-6,22,34,1,2,-12,-42,-5
-14,-12,0,-10,-53,0,37,-29
-3,-8,-12,-2,28,7,-2,-19
2,-1,-15,-40,28,-20,-34,-28
-3,-9,-11,-43,-128,-40,2,22
-14,-14,-8,32,-50,15,0,-27
-22,-6,-7,4,91,23,23,88
-7,-4,-3,6,-128,-13,-34,-128
34,3,11,10,16,-7,4,81
-9,4,2,-2,28,-4,-20,-7
-11,4,-16,-28,-12,-5,2,-19
2,-1,25,6,9,-25,-2,44
27,19,47,34,127,65,4,30
-13,5,-33,-37,32,-16,-33,-43
29,-6,-4,-41,-5,2,103,67
12,-2,16,102,22,46,-7,16
-14,-25,-16,7,53,-3,-27,-22
-26,-11,-13,-85,36,-26,-30,-60
6,11,-3,42,-128,-3,33,12
-7,-17,-6,1,58,7,12,2
-7,-13,-17,-23,10,-4,12,12
1,-2,-9,-5,-51,-16,-23,0
-27,5,-7,-30,20,-13,-3,-17
29,-5,-8,-11,-86,-24,-22,0
24,-16,-25,8,11,10,14,41
9,27,77,37,30,42,44,48
11,25,10,2,26,12,13,45
-9,-29,-13,-9,1,-12,-13,-8
-30,-20,-37,-70,-50,-52,-30,-16
21,10,-12,64,121,85,49,-65
5,-10,0,-18,-35,-20,-20,98
14,22,39,-5,32,-10,-8,20
-3,-16,-10,-19,-22,-16,-18,-3
6,-5,-12,33,-128,-4,38,4
-17,-10,3,26,65,-9,-27,-53
-4,-11,-8,-27,25,-11,-13,-13
-18,4,-7,-41,-125,-32,-20,-30
-4,-9,-10,16,98,20,36,-11
27,14,23,1,13,20,60,-20
11,6,5,-33,-43,-36,-49,76
-9,-1,-27,27,127,31,-7,6
-1,-26,10,30,89,31,21,8
5,14,6,-8,48,-7,-24,20
-23,-1,-6,-32,-118,-24,-6,-87
-20,-13,-5,-27,-128,-35,29,41
23,6,0,11,110,22,-5,29
-14,0,-13,-10,-128,-47,-84,-91
27,14,-4,48,99,31,48,110
14,18,-1,-6,-32,-8,0,16
-23,-12,21,-11,-17,-20,-16,-16
20,13,9,-10,-7,-2,-6,10
-15,-11,-14,-44,43,-17,-9,-10
-15,-14,-8,-24,-128,-28,-1,17
-16,-11,0,58,33,32,-5,-89
11,3,0,7,63,10,28,27
21,3,-7,3,31,-8,-20,60
-38,-38,-19,-4,3,34,64,-54
13,24,17,17,14,-27,-62,-30
20,4,-5,-12,-14,-6,16,32
-1,-7,-14,-14,-14,6,1,5
-7,8,2,-55,-128,-48,-21,10
4,5,9,54,61,59,32,-15
-6,-5,4,12,-55,2,17,-26
2,-25,-22,-22,-32,-26,-19,-24
-10,-2,-27,10,33,13,1,64
20,21,42,-10,-10,-4,36,-32
8,-2,-4,-18,19,-13,-28,-2
-7,-4,-23,-21,49,-2,-23,0
5,16,43,30,96,10,-2,-13
1,-3,8,55,-57,36,36,-2
-30,-4,-30,5,57,-4,1,-33
8,-3,8,-20,-102,-27,-9,15
18,-25,-11,-15,18,-21,-45,33
10,21,7,-2,15,2,-42,20
-20,2,-10,-8,45,6,39,-48
-5,-35,-13,-62,-111,-51,-27,-34
-18,-10,-16,-37,127,40,74,-20
61,40,31,127,-128,-4,-25,104
-8,-10,-16,8,94,25,9,-41
-7,-9,-11,-28,-8,-18,-11,48
-8,-24,-36,-34,-11,-20,-16,-38
-10,21,41,6,-28,5,4,-8
16,-1,9,-12,-12,-14,-10,4
-2,6,-21,-19,-8,-9,-4,11
-8,-10,36,5,-23,7,35,11
-12,-17,-14,3,20,23,21,-37
-6,10,-11,-10,-70,-12,14,29
-6,-3,-14,0,-54,-15,-19,-23
17,-17,-1,-14,-3,-9,15,39
-20,-7,-11,-85,34,-23,-32,-27
10,0,5,81,-128,-11,57,14
1,18,-15,48,50,9,-31,-19
-6,-19,4,-15,9,-17,-38,4
-19,-12,-15,-18,6,-19,-27,-25
16,14,-11,-49,-52,-24,1,-23
8,16,-14,24,123,52,32,-17
12,10,22,20,-5,-15,-1,16
-13,-26,-10,-31,-81,-30,12,114
18,14,-8,42,127,37,-4,-52
-7,-7,-11,-17,96,10,10,33
-2,-16,-14,-16,-76,-19,9,-2
11,2,-2,0,-11,-3,-29,20
-27,0,-5,-78,-36,-30,-32,-37
-16,-4,4,65,94,41,23,-96
-2,-24,-20,30,-81,25,31,15
32,15,-14,3,27,-12,-42,37
18,0,20,-25,24,-5,-9,20
-26,-11,6,-35,-18,8,5,0
1,8,-12,-24,-128,-49,0,-2
7,12,2,26,91,23,-7,27
-8,-3,6,-1,27,-3,-22,3
-8,-12,-25,5,17,-1,-36,-15
-10,-11,-21,-55,-91,-38,4,-62
38,21,30,67,82,25,12,45
-4,2,16,10,-33,-17,-33,44
-12,-17,-39,-45,23,-22,-21,-5
6,11,29,40,103,53,34,30
-9,-8,5,-12,-21,12,34,-7
-5,-17,-30,-17,-44,-47,-55,-37
7,7,40,-9,-128,-14,4,-1
14,6,9,43,35,24,7,18
-14,1,-11,-34,-30,-31,-21,2
-12,-12,-16,-37,-128,-45,-12,-20
-6,13,-39,3,34,19,36,-18
14,-10,-8,10,-128,-27,-15,59
-4,-28,18,26,91,4,-19,-13
-13,4,1,-20,20,-14,-2,-11
-23,2,-31,-45,-119,-44,-11,-30
34,4,47,37,127,35,-9,38
20,11,-10,29,74,29,32,-11
7,5,-14,-16,-20,-29,-62,32
-13,-6,-9,-26,60,-12,-33,-19
-16,-20,-2,-26,-66,-7,19,8
0,11,11,69,70,40,36,-6
-4,-1,-20,-1,-16,-1,8,0
-28,-10,-8,-1,51,17,13,-73
16,-1,23,-10,5,-13,-29,96
18,-2,-16,-9,-21,-3,-32,-64
2,4,2,-13,-8,-14,-4,13
22,-1,-7,-3,-28,-2,53,31
-8,5,4,-25,53,17,27,27
-7,0,11,45,-71,-6,-47,-11
-66,-23,-41,-110,-128,-85,-60,-49
4,-50,-23,127,127,108,72,10
46,39,92,14,10,2,-12,11
23,31,-23,-19,4,4,2,7
-18,7,22,-23,-2,-33,-45,8
-24,-14,-15,-61,-59,-34,-6,-16
6,-4,-15,29,-100,4,-8,-2
-3,-16,1,-5,80,16,-4,8
-5,4,-3,18,27,5,-6,-25
-22,-9,9,-14,-66,-30,24,-38
-9,4,14,60,79,31,-1,17
35,4,-6,2,12,-10,-51,14
-9,-3,-30,-33,23,-3,21,29
-23,-9,-9,-38,-32,-31,-40,-5
-39,2,-35,-1,-128,-5,-12,-128
47,19,52,-21,64,-30,0,127
33,12,88,49,-20,30,9,-29
-2,-3,-14,7,30,8,21,-22
-6,-15,-27,-20,-26,-9,5,13
-23,7,-25,-28,77,-12,-29,-21
-20,-4,-13,-34,-128,-9,5,-46
8,-13,-9,-8,7,0,11,34
14,1,-1,54,11,14,-17,44
-28,-20,-4,-31,-26,-17,18,-89
-34,14,-8,35,16,3,-7,-116
66,20,25,31,53,26,23,127
14,1,1,-20,-12,-38,-50,35
-16,-16,-8,-42,-13,-7,-11,-11
-18,-12,-13,-13,-128,-17,21,-18
-10,-8,0,16,44,14,1,-38
-15,-9,-13,-66,-22,-50,-36,-36
-31,-30,-49,-77,-128,-69,80,11
27,15,-31,127,127,90,46,58
-15,26,107,11,19,-1,-30,0
39,2,26,-22,-17,-18,-16,83
-3,-13,-22,-38,-32,-13,2,-2
-16,-6,-18,-23,-26,-7,-6,-76
-6,0,-25,-15,-26,-10,10,36
-5,-13,-19,-22,0,-6,-4,-14
5,2,-31,-4,65,15,14,-11
-4,12,-16,19,-45,10,-3,15
-33,-7,-21,0,26,1,-10,-118
22,18,87,15,-38,-28,-17,59
-6,-15,-8,-13,-43,-9,5,17
10,18,0,15,58,7,3,-10
6,-3,-12,-44,57,2,15,32
-55,-50,-42,-17,-91,-17,-47,-112
-7,11,-37,55,91,26,19,-19
58,27,73,14,-28,4,28,102
34,-2,22,11,31,2,0,37
-13,-11,-18,-12,13,2,-16,-56
-29,-6,-14,-16,9,0,21,-9
4,-1,-10,-7,-62,-24,-68,23
2,-7,-9,-4,-11,2,12,24
-8,-3,-18,-12,68,14,-10,-37
1,17,4,-45,-47,-46,13,-1
4,-23,15,88,107,72,27,-33
-11,16,-23,-11,10,-9,-22,-19
30,29,-4,-17,-7,-17,-35,46
-8,4,-27,-49,6,-18,-9,-4
7,4,33,82,-107,1,9,-2
-24,-29,-10,-19,117,31,33,-51
-9,-28,-26,-16,-128,-19,42,55
7,10,13,-3,127,48,-7,7
12,30,0,-16,-70,-17,36,7
-3,20,17,46,127,41,-19,-6
6,-3,-3,47,-5,47,23,23
-16,-23,-43,-9,98,-3,-42,-38
2,-10,-16,-40,-86,-3,23,57
-3,-8,28,10,41,3,-10,-49
-14,3,52,2,53,0,-30,-14
10,-1,-12,-37,-17,-14,0,40
-29,-14,-32,-32,-85,-22,16,-85
18,1,0,86,127,40,-7,15
2,18,24,-9,59,8,-19,7
18,7,55,7,-39,-1,8,-2
-5,-4,-17,-25,-39,-11,-4,11
-36,-7,-13,-2,92,16,-18,-128
-8,-15,-37,-11,-59,-22,11,127
-23,-17,2,7,-24,10,8,-45
15,-6,-26,-12,46,-15,-46,-23
33,-4,10,6,4,7,0,67
-6,26,32,-38,-128,-42,-22,-16
-5,5,-7,15,127,69,22,-58
7,-13,-22,16,-128,-43,-9,20
-12,4,-3,16,66,5,-13,-19
-10,5,-3,-26,42,-14,-16,5
-1,-13,-14,-24,-14,20,36,21
-1,2,25,66,61,20,-1,-29
10,8,-1,17,-33,-8,-18,-3
-6,-6,3,-17,-5,-9,-4,-38
-14,-21,-36,-35,8,-15,-21,-4
-10,-21,24,-22,-128,-25,0,-30
-7,3,27,48,127,63,12,6
1,33,31,23,-18,-4,39,-7
52,38,17,-7,15,-5,-5,-13
-14,6,-10,-24,-35,-21,-22,30
-14,-14,-17,14,24,24,-22,-37
-10,-24,-24,-88,12,-59,-55,-59
6,0,5,67,-90,30,23,56
10,19,17,36,41,12,-1,22
-31,-46,-44,-38,111,6,-7,-63
-2,24,-14,-15,-128,-45,5,-17
9,-16,50,33,101,12,30,40
-9,-13,-25,-15,-20,-11,-7,9
-9,2,-12,-8,22,-4,-14,8
5,-7,-11,-22,26,-12,-8,-62
-25,-5,-5,-38,-67,-44,-45,-6
8,27,42,72,75,58,32,-33
7,-7,-8,7,34,2,-15,5
-8,-18,-16,-28,-7,-15,-14,-17
-9,-10,-5,-51,-97,-25,6,-5
-6,12,7,39,44,22,5,-10
-2,-14,-6,35,47,16,17,73
-1,-13,-20,9,17,10,9,-2
-2,8,-2,-52,4,-51,-36,-13
-25,12,10,-1,-44,0,-23,-49
-15,-9,9,49,-86,34,33,11
44,9,8,3,26,-10,-53,65
5,5,6,-11,7,-1,6,-26
-3,-32,-12,-23,-3,-12,-11,-13
-21,4,1,-43,5,0,1,-83
-4,7,17,53,-2,13,3,22
20,1,-11,-35,-128,-35,-24,-11
-16,-1,-1,43,127,52,11,-9
-36,-20,-14,-19,-80,-30,-19,-26
36,13,-15,-11,50,13,49,36
25,-4,-4,-1,-1,-13,-21,127
-18,-5,4,-32,26,-3,-12,-56
-13,0,-19,-47,-57,-34,-21,-18
-3,6,-14,65,127,76,90,27
13,2,28,32,-81,-14,-16,18
-10,-9,-18,6,-32,-1,-31,-8
-4,3,47,-15,-12,-14,10,-12
-13,14,3,1,74,29,53,-17
12,-16,-12,-15,-29,-12,-23,28
30,8,-41,-23,-28,-11,7,7
0,30,40,18,49,3,2,18
-5,-15,10,-38,12,-12,-20,-3
-16,-9,10,11,-30,19,22,-22
2,4,2,69,52,43,9,-6
3,-17,-15,3,-16,-7,23,15
-14,-3,-17,-83,-76,-52,11,-76
3,6,7,70,127,84,59,109
-6,-14,-13,12,87,16,7,-39
5,34,5,-15,7,-11,-36,-26
-2,-10,2,6,-30,-2,-3,3
-5,-16,-15,-14,13,-3,-19,-40
-56,-20,-38,-42,-21,-12,35,-60
-3,-23,16,-4,-55,-6,-21,40
60,35,16,88,73,22,3,29
9,-6,-22,-6,-10,-5,-4,70
5,5,9,-18,-1,-4,-5,8
2,-9,-17,-26,39,-1,14,0
-12,-7,-6,6,-67,-1,-4,-35
-24,-2,3,2,54,8,1,3
12,-3,-29,3,-28,8,3,32
-6,-11,16,-27,13,-8,-6,-10
-13,-21,-13,-16,107,-24,-26,-17
12,19,-8,54,-83,27,31,35
-6,8,12,45,37,18,17,-50
-10,-7,-8,-12,-19,-3,-19,-3
12,-3,-26,-28,-23,-17,-34,18
-6,4,-4,-25,-8,-22,8,11
-30,-9,13,-24,51,7,-24,-46
-23,-8,7,21,-120,7,-16,-58
35,12,47,-11,89,7,52,-57
11,2,-16,-39,-117,-44,-36,121
-13,-11,6,71,127,56,2,-2
-11,-4,-24,-67,-21,-22,-12,-55
-4,-21,-17,-11,-104,-18,19,-34
23,7,-7,49,26,48,12,47
-12,9,31,0,68,9,-3,-1
-1,5,-8,-29,-81,-39,-39,-36
-3,6,22,4,82,11,7,34
5,-1,-22,-13,-87,-11,-12,-27
-15,8,1,-4,-32,-3,9,-37
7,-2,2,-8,6,-11,-29,-14
3,14,-35,-11,2,-23,-18,7
15,11,11,2,-12,6,46,64
-6,-12,24,-24,-7,-14,-35,-45
-14,-7,-26,-5,-128,-6,38,23
-19,-10,33,8,103,15,-12,-59
7,-11,-6,6,-32,2,-5,46
-12,11,-19,32,71,1,-23,-29
10,2,-22,-32,31,12,8,2
37,17,14,-5,-66,-19,28,2
-13,-19,-29,10,-128,-15,-4,43
4,14,-7,7,46,11,15,28
2,8,38,1,-14,-6,-15,-12
-17,-14,-13,-70,14,-22,-1,-17
-16,-11,-9,-52,-63,-41,-35,-1
8,5,22,127,127,113,61,8
-3,1,-12,6,31,12,-2,-14
-16,-4,12,-16,-37,-17,-23,-16
-2,-6,-12,-23,-22,-4,2,-14
8,1,-11,-27,-23,-25,0,1
-4,-14,-18,-21,-31,-14,-17,-25
-14,-1,8,-35,42,-16,6,-14
-38,-23,-25,26,-69,7,2,31
39,19,4,23,29,25,24,23
4,-4,7,-8,-27,-30,-74,7
-2,-1,-15,-11,6,-21,-51,-42
20,26,-9,-20,0,-7,-14,36
5,2,-6,-16,-23,2,3,7
-7,-12,-21,-4,41,-15,-3,-30
-35,-17,-4,-4,-74,-7,23,-18
19,-2,-28,82,127,50,-22,19
-10,7,60,4,31,-7,-43,-8
-50,-21,-2,-25,-27,-11,7,-56
41,10,-21,-19,40,0,5,-29
14,1,26,3,-106,-17,-30,80
-1,1,-21,-11,26,7,11,-5
-7,-4,11,-16,-37,-9,0,8
-13,1,7,-35,54,-14,-23,-29
-10,-2,24,-59,-128,-80,-16,-13
4,10,17,127,127,104,36,-39
-2,-8,-30,-3,-6,-15,-5,-38
-21,31,12,-19,-37,-9,41,5
7,-30,2,-29,102,15,-6,15
1,-18,-19,-13,-92,-27,-20,42
-10,-1,9,-8,-79,-1,25,-41
16,1,-2,-7,-53,-8,-9,-6
-7,6,-27,-16,26,-6,-17,3
-16,-4,-17,-28,20,-18,-7,-26
-41,-27,-3,-15,-128,-14,46,-107
50,15,-1,-23,38,-19,6,124
26,21,46,127,127,127,78,103
10,12,-10,-10,23,-5,-28,47
-1,-5,-28,-26,-23,-18,-17,-33
-12,-22,-19,-22,-34,-19,-29,-41
-10,13,83,-5,-9,-6,3,8
-16,-1,20,-3,-17,-4,9,-37
-7,-8,11,-9,41,11,23,17
-6,9,8,-35,-46,-16,23,-33
7,-25,-16,14,-107,-23,-19,71
13,20,-10,66,127,53,2,-4
12,5,35,-2,1,-7,-9,21
0,-14,-35,-10,62,20,24,-7
-7,18,1,-32,-106,-47,-39,-8
-8,-7,3,15,127,19,16,-12
-4,-13,1,-19,-53,-27,-8,-14
-11,-5,-19,-38,13,23,16,22
4,-17,3,71,-128,-29,20,-12
-23,11,35,85,127,80,52,17
25,14,-26,2,18,1,-10,25
3,7,37,-17,-10,-18,-25,-20
-13,-2,7,-25,-15,-18,-5,-44
-12,-9,23,-27,36,-11,-26,15
-17,-16,-12,-68,-120,-69,-18,-69
15,6,-5,99,74,53,33,31
2,12,9,22,74,2,-5,23
-30,-19,-48,-13,36,24,55,-10
-1,-23,20,-21,-14,-42,-23,96
15,23,14,-22,-34,-19,-36,-17
20,-1,3,19,31,12,2,-6
1,2,-32,-25,0,1,8,-6
-17,-11,-33,-9,-27,11,21,-11
-2,-6,18,-41,-72,-25,21,33
22,15,6,112,127,62,-1,-11
-20,-10,-24,17,81,17,-22,30
19,4,55,-6,9,1,1,-10
-3,-3,5,-27,-50,-18,11,36
5,20,2,-23,-9,-12,-7,20
2,-9,16,-10,-128,-20,-1,-42
-7,-8,3,14,35,22,45,43
-16,9,-26,-79,-36,-67,-59,-45
-4,6,11,88,0,99,79,-26
-11,-8,-13,21,127,29,13,-2
9,0,-2,-8,-27,-16,-16,77
12,7,-8,-8,2,-4,-2,5
2,1,-2,-74,14,-15,-7,-46
-8,-5,-12,7,-128,-21,22,-3
-4,5,-21,-8,91,-1,-6,-9
12,-3,-9,1,-128,-46,-34,28
4,-4,6,38,117,21,-18,38
-22,-6,-5,-2,34,7,-2,-31
-17,-14,-23,-54,-36,-16,13,-110
21,11,-30,-33,-128,-44,-22,77
25,20,22,46,27,30,-1,25
-2,-8,1,4,49,0,-16,9
-16,5,26,37,91,29,0,-30
-36,-23,-24,-44,123,10,3,-27
-11,-10,-28,-20,-103,-57,-9,21
51,14,9,54,72,76,31,102
26,11,-1,32,78,22,3,26
-4,2,7,-17,-9,-15,-9,24
1,2,2,-17,-13,2,27,21
-9,-3,-9,-20,-22,-25,-37,-25
0,-13,-11,-37,-28,-6,35,8
-24,-9,-41,29,69,33,2,-33
5,-3,20,-4,-60,-23,-11,15
2,-3,-1,-6,-7,-14,-3,38
-14,-31,1,16,84,22,51,11
-6,25,-35,-3,-83,-7,16,-31
16,-9,-7,-9,24,-24,-26,1
-18,-3,22,-22,-9,5,-3,-25
7,8,-20,9,-49,-26,24,14
-9,7,10,90,118,65,-38,-41
-8,-16,-7,-15,-1,-27,8,31
36,5,-11,5,-56,-11,-11,126
-4,-4,-24,-52,102,1,-35,-16
15,-4,34,-27,-128,-59,5,11
19,0,-16,43,127,54,54,29
-9,1,23,-2,89,9,0,-11
-13,-16,-26,-55,16,-28,-33,8
-47,-25,-29,14,-128,-1,61,-84
20,5,18,20,75,-4,17,64
30,13,0,2,18,11,-3,27
-11,7,20,-7,-30,-14,-8,20
-7,-1,3,-6,-6,-3,-11,-20
-21,-33,-47,-57,-52,-28,-20,-71
-47,-29,-13,40,91,45,44,-10
-14,-2,21,-45,-61,-12,-28,-97
85,70,29,105,68,18,11,127
29,41,-15,14,-9,0,-28,6
-21,-42,10,-17,13,1,-5,-50
3,-25,-40,-35,-11,-13,3,7
-6,6,-10,-10,-27,-7,6,-1
-11,-4,-15,10,40,21,7,-32
-5,-8,-3,-26,73,0,-11,-3
-13,-5,9,-64,-128,-43,0,-30
-3,-14,-12,48,107,74,62,27
21,24,25,127,127,85,37,33
-6,-2,-35,-7,32,-5,-8,29
-15,-3,-5,-29,-10,-15,-18,-26
7,2,-13,-33,-20,-21,-11,-22
15,4,-9,-25,-11,1,37,43
-19,-12,-3,-21,7,1,1,-1
-36,-21,-45,-26,-83,-47,-54,-43
21,16,46,25,38,1,-44,-8
39,-14,19,14,-12,-7,-18,127
-20,-23,12,0,-5,-1,-6,-37
25,35,7,-3,2,2,-2,-55
16,9,-7,-6,-3,5,30,76
3,-7,-21,-10,19,-2,9,-4
-14,-3,-15,-24,-43,-29,-24,8
-34,-26,-15,2,7,28,51,-105
-24,2,36,24,-5,15,29,0
51,23,7,22,-102,-38,-6,106
2,-9,-28,-8,2,0,-20,-6
-15,-18,-17,-31,7,-16,-12,-13
11,15,7,11,16,16,15,-2
-6,7,50,9,24,0,1,3
-7,-4,-48,-3,34,9,32,12
4,0,-23,-9,-4,-8,6,35
-37,-28,17,-56,66,-19,-52,-84
-14,-18,-25,20,-128,-25,42,-42
23,36,11,47,57,8,-29,67
5,-7,-1,-45,-72,-42,-29,-17
-10,-18,-4,36,127,33,8,-7
-7,0,3,-38,-46,32,31,19
-29,9,-33,-55,-15,-71,-34,-123
-1,10,7,122,37,104,49,48
58,4,77,31,51,6,2,29
-29,-24,-29,-42,12,0,-26,-50
-2,2,-41,-9,-15,-5,45,26
-12,24,26,-23,24,-23,-33,-42
-2,-3,-19,-2,-36,13,29,4
-8,-4,-10,1,3,1,5,-13
-12,3,1,-24,57,-9,-26,-18
-26,-14,-13,-33,-128,-52,5,-71
4,-12,-6,47,127,44,22,34
12,24,-4,2,14,2,-19,11
1,4,6,-28,-15,-8,-18,-32
-11,4,1,15,15,2,2,-54
2,9,28,-32,20,2,26,16
-9,-25,-3,4,-128,-30,-32,-20
3,-24,-14,15,47,-8,-60,16
6,7,-4,-13,12,-2,-21,-15
-8,24,33,-25,-39,-8,-15,-48
-24,8,-1,20,23,21,55,-72
8,-12,19,67,127,55,43,81
23,2,-36,-5,-13,-5,1,87
-28,-10,13,-25,-14,-18,-31,-62
42,14,14,-56,-103,-32,18,72
-9,8,6,55,10,-3,18,1
1,-11,-25,17,72,17,0,-23
-10,-7,-1,22,127,26,11,-12
-18,7,-7,-70,-41,-20,9,-83
-1,-2,-13,52,23,12,26,53
-3,4,11,-6,-14,-9,0,20
19,8,-18,36,48,14,10,-13
6,-9,33,-15,5,-8,-20,20
-44,7,-27,-81,54,-43,-59,-87
-10,-16,-2,-128,-128,-105,-69,15
34,-19,28,127,127,127,127,83
36,53,9,4,-17,-12,-19,11
-7,2,-9,-33,-30,-11,-10,-5
-3,-21,-30,-30,-29,-13,16,5
-53,-13,1,-17,-25,-17,-34,-110
59,6,21,-12,-12,-7,-23,101
-13,-6,-18,-7,-13,-13,-12,-36
-1,5,4,2,-4,-3,-2,-5
-33,-4,22,4,8,13,56,-55
12,-22,-9,-2,-10,-8,2,69
-3,-5,13,0,1,5,-42,-45
6,14,-14,1,0,-13,-10,38
-4,10,4,-11,7,-10,-15,-39
-4,-3,-21,-12,-2,7,13,-30
-1,8,36,48,127,42,8,8
23,10,24,29,-128,5,35,44
-10,6,-7,-3,48,13,-2,-10
-20,-29,-21,-28,40,-20,-37,-56
19,-9,-7,-31,-56,-23,9,30
8,1,-24,17,-14,21,19,40
-10,-3,26,-14,46,-12,-23,-42
4,2,3,20,-58,2,-19,4
-22,0,-48,-25,-106,-34,-31,-53
-10,7,46,-7,-18,2,13,20
-1,8,58,28,47,9,-24,-72
18,-9,-10,-13,-54,-20,-19,39
-2,-17,-15,-6,-19,-5,-5,4
-14,-14,-31,-40,28,-6,-1,-43
-26,-7,6,-53,-104,-26,-57,-44
13,1,18,72,-1,17,-9,40
19,-9,-6,23,-2,1,-16,28
19,20,17,6,77,17,34,23
-7,7,-23,6,126,35,9,0
10,0,11,-23,20,-5,-20,-3
-1,-2,22,-1,62,11,-20,-12
-6,-9,-26,-18,-52,-20,-4,6
-8,-2,-16,8,44,13,10,-12
-6,-7,-11,-15,14,-15,-6,9
-27,-14,5,-42,45,-24,-42,-51
-27,-19,-49,-23,-128,-33,69,-29
52,23,15,89,127,71,9,64
5,0,7,6,-39,-15,-15,-3
-5,0,55,-26,-71,-7,17,8
8,4,3,8,33,9,6,46
-12,-5,-7,-13,-57,-38,-32,-57
26,-9,-1,5,15,12,-1,67
19,8,11,13,107,42,2,42
5,14,-10,-25,15,2,9,-33
-40,-23,-18,3,-38,0,1,-31
6,-2,38,0,16,4,7,1
-6,-8,-25,-11,25,-3,-13,-102
31,9,17,-91,-91,-38,-5,105
5,13,15,121,127,82,13,-1
-15,-6,-4,53,51,32,14,-6
-9,-7,11,-23,-66,-20,8,1
-7,-18,-27,-6,2,9,8,-38
-10,17,-9,10,15,12,-12,35
10,-5,4,-34,-7,-14,-2,-27
-13,4,-17,-30,-126,-44,-22,-4
1,-5,-7,-22,75,45,28,27
6,10,-9,5,-3,-22,-26,-28
-3,-7,28,71,97,27,6,11
1,2,1,28,127,49,56,4
5,0,-6,-22,36,-6,-24,22
-3,4,16,-28,-43,-13,-10,5
4,5,-5,-17,-40,-22,-21,-27
-16,-29,-28,-4,-128,-17,18,-8
-10,-9,5,7,49,6,-33,-8
18,30,3,-63,36,-6,18,-15
-5,-8,-13,44,-61,15,18,-7
10,7,2,8,57,-16,-34,-11
8,3,3,-44,-109,-22,9,-24
-2,-15,18,64,74,23,59,9
-17,10,-13,-9,6,-18,-45,69
-13,-24,-5,-46,24,-6,-32,-50
-1,3,-19,-15,-93,-35,0,11
2,30,37,15,67,24,4,34
-10,-12,-4,29,35,43,36,0
-11,-16,-30,-12,-74,-20,0,-64
-3,1,-25,9,62,-2,-10,-5
2,7,90,15,-2,-2,-8,23
6,-2,10,-1,38,9,16,-3
-4,-7,-23,-11,-28,-11,-24,-13
-23,-20,-29,-59,40,-20,-49,-21
-53,-27,-15,-117,-128,-99,-27,-85
68,63,63,127,127,127,88,83
20,21,65,23,28,35,17,-29
0,-19,-11,-35,-49,-18,-16,32
-15,-16,-25,-31,-32,-18,-16,-21
-3,6,-5,-22,-12,-5,-14,13
-15,0,-9,-17,-28,0,11,-58
11,3,-19,-5,-42,-21,-9,45
-9,-11,3,4,26,1,-6,-17
-9,-14,-10,1,-5,-3,-8,8
-18,4,-7,8,-33,1,-19,-53
9,3,7,11,-2,10,61,32
3,-20,0,-7,12,1,-9,-11
-8,-13,10,-7,43,4,-26,-10
-1,-1,-13,-10,28,6,16,-29
-13,11,6,-10,-28,-15,-19,16
12,-3,13,44,67,18,-1,8
20,-1,-21,29,-45,4,22,27
-4,7,23,16,68,15,8,9
-58,-16,-19,-66,61,-26,-55,-97
-2,-2,-6,-6,-128,-51,11,15
59,28,23,73,127,40,-14,99
-2,-10,-56,-3,-15,4,12,-10
-17,-19,1,-24,4,-17,-30,-8
-14,1,4,-19,-81,-11,24,-42
-5,-10,-43,-13,-103,-21,-8,3
-2,-16,4,17,53,7,4,-20
-10,18,28,-9,57,-5,7,15
3,15,-3,6,-65,13,-1,-6
-25,-19,-14,-4,10,-8,-20,-39
2,-23,-56,-81,-13,-40,-34,-1
26,17,84,46,-30,30,56,13
4,9,0,43,84,-1,-33,-13
-6,-19,3,-6,-12,-9,-17,28
-6,-11,-20,-29,-45,-7,6,-47
11,3,-3,0,17,-1,-47,-16
-1,6,-6,-8,84,8,-6,-15
-23,-23,-1,-16,-88,-2,48,45
-32,-38,-41,-25,-71,-21,10,-31
19,21,26,15,64,9,-75,-40
14,7,-12,-3,-10,-12,-29,-7
1,4,12,-16,-30,-2,16,24
-5,-6,7,8,30,11,6,3
-17,-10,-21,10,127,16,-6,-33
0,-28,-27,-27,-128,-41,-9,31
-7,11,26,88,127,50,39,-6
10,27,39,-10,25,-20,-37,34
-4,1,11,-5,-44,0,17,-46
-11,-12,-30,-31,25,-4,-21,22
-20,-10,-26,-23,-78,-27,74,-84
19,-9,-33,-35,-40,-11,-9,58
-2,-16,-8,-8,2,9,-25,17
42,22,23,36,-121,3,15,36
-15,3,-7,-4,41,-16,-18,-25
-10,-1,-3,18,94,38,38,-42
-20,-7,-30,-11,-81,-8,-7,-33
13,-4,10,-14,20,-7,10,5
-9,-11,-14,-5,41,-5,-16,-22
0,-19,-35,-81,50,-24,-9,-19
6,2,-1,95,-9,51,30,26
-17,22,49,48,64,13,21,-40
7,2,-60,-18,25,-9,-7,15
-5,5,53,-40,-62,-34,-22,29
1,-13,-5,34,101,30,-5,14
11,1,4,5,39,5,-11,27
0,7,-14,-22,-14,-8,-6,1
-25,-7,-28,-13,-24,-16,-44,-83
-2,2,28,3,-28,1,33,48
-2,4,-7,-6,-1,-8,-21,6
6,-14,-4,-13,-39,-2,12,-6
14,13,4,24,24,10,7,28
-22,3,3,-7,29,-9,-41,-43
-21,-13,10,-36,12,-18,25,-71
58,-2,-11,-16,-128,-6,36,94
-6,-13,3,57,-9,2,-3,3
6,16,8,48,87,16,-13,-16
-29,-6,-27,-20,23,-8,-10,-50
2,-5,13,-16,-38,-4,16,10
-4,-14,-20,-10,28,-3,-25,-15
-5,-4,15,-25,17,-13,-32,-22
-15,-11,-46,-55,-69,-23,6,-12
-32,-8,25,58,67,57,-2,-56
-2,-18,-9,10,-33,17,86,-11
44,23,11,17,25,5,4,127
25,17,-9,20,14,11,-1,34
-12,-16,-13,-20,14,-14,-14,-17
-38,-8,-10,-38,-34,-17,-5,-45
6,-1,8,-8,-68,-1,4,-6
0,-2,-12,20,23,25,69,50
5,12,-28,-1,127,7,-62,-33
-5,-37,-9,5,-128,-19,-2,-31
4,6,26,7,17,-10,-1,-25
8,19,-11,-7,42,17,4,42
-15,-12,-15,-45,7,-30,-23,-22
-26,-3,-28,-73,42,7,-1,-13
27,6,37,59,-128,-29,38,16
13,7,22,111,127,65,14,-14
0,-17,-22,-16,13,-5,1,20
-16,0,0,-23,-15,-11,-17,-14
-13,-1,-13,-81,-20,-37,-15,-41
6,7,-1,15,-128,-10,7,-8
-6,-9,-19,19,80,-15,-79,8
-27,-4,-1,-29,-55,-14,-4,-35
32,-3,-4,-6,-21,-2,30,20
11,8,-11,38,-74,17,-5,26
-12,-6,-28,4,33,5,15,6
-12,-17,3,-23,-14,-9,-4,-14
-19,2,-11,-15,-10,-13,-25,-35
-37,7,16,-35,28,0,-15,-63
46,-4,24,5,-26,-38,3,61
25,-12,-29,0,-65,21,32,31
14,22,1,36,35,14,18,48
-16,-23,-18,-6,10,0,-19,-14
-35,13,-20,-11,-12,2,4,-40
18,-7,23,-6,17,-13,10,-4
-5,-13,-2,-38,3,-24,-32,-89
-7,-17,-37,-10,8,4,0,3
-4,16,36,31,-38,32,26,-8
-2,4,19,65,127,19,-41,-13
15,6,-17,15,53,21,3,4
13,-21,-56,-17,-12,3,16,39
-4,22,45,-72,35,-26,-2,-34
3,-8,1,-4,-128,-22,11,26
-8,2,17,60,74,28,9,-4
8,-4,-47,-19,21,-7,-6,-9
-4,-25,-2,-84,-85,-46,-17,6
11,22,-30,54,-86,44,33,73
-1,17,54,8,2,-1,0,-9
-21,-17,-17,-16,-10,-9,-20,-51
1,3,-9,-49,-11,-9,-34,-13
-16,12,-6,-31,-128,-50,12,-14
3,-5,-15,12,38,22,22,-31
-21,-17,-13,43,93,27,-16,9
-3,-10,3,-18,-63,-28,-35,-59
18,-7,16,30,24,3,4,29
-5,-11,-37,-20,-8,-4,-10,1
-1,13,-3,-20,34,-6,24,-6
-13,-4,-10,-24,-128,-25,-2,-3
5,7,38,52,127,56,14,-6
24,10,-23,5,13,-33,-27,65
6,1,17,-15,15,1,-6,-10
-36,-12,-9,-58,-12,-15,-16,-38
11,-18,-15,7,-94,-47,-33,43
51,70,40,108,127,91,33,28
-2,-29,-26,4,20,7,3,21
2,-19,7,-16,-8,-4,12,-5
-24,7,19,-16,-22,-10,-29,-65
-25,-4,-32,-57,-15,-38,-16,1
6,11,-6,33,33,26,11,16
-9,-3,46,12,10,-1,-1,22
18,-4,-20,30,100,19,4,5
2,-5,-24,-19,-19,-17,-13,2
-17,1,29,-31,-53,-22,-6,-22
-6,-11,-11,0,49,6,23,-62
-6,11,69,17,1,-5,-4,12
-12,11,-37,-27,35,-2,-20,14
-5,-3,-19,-52,-128,-79,-28,-4
44,16,26,114,127,101,46,39
7,-17,-5,18,81,10,1,16
-13,0,-9,-22,-9,-7,-12,-40
1,30,-1,-19,-24,-17,-5,20
6,-5,-14,-14,-15,-13,-40,6
-4,-16,-14,-35,-18,-12,-6,3
-8,-13,11,14,-16,3,-19,-52
-25,-7,-5,23,-43,4,28,-54
1,18,-15,30,45,36,62,-42
16,1,18,-14,-8,-35,-49,91
-2,8,-2,-1,-16,-6,-10,2
10,-22,-32,-16,36,-6,-23,35
-5,-6,-4,-30,-88,-29,-5,-32
3,4,30,-11,79,29,5,22
-12,-4,-11,-11,30,-9,0,-8
-21,-10,-19,98,27,42,63,3
12,24,55,30,2,16,30,-1
-22,-11,7,-22,1,-16,38,-13
-12,-14,-23,-23,-33,-12,-41,-36
21,4,-2,-27,53,-14,-6,16
8,14,-3,-44,-128,-38,9,55
-5,-21,-16,29,78,20,6,3
4,30,50,23,69,17,24,2
-22,-9,-66,-84,62,-17,-13,-62
-19,4,30,61,-29,45,69,26
32,19,34,45,45,0,-62,22
12,-30,1,-19,-25,-16,-20,-17
-2,-4,-35,-23,-11,-9,-1,45
-7,7,-3,-24,-10,-2,8,18
-12,-23,-2,-47,14,-2,14,-11
18,2,23,-6,-93,-26,10,-22
-44,-13,-13,49,124,43,66,-67
9,18,17,25,28,1,-10,25
-9,-3,6,0,17,-9,-36,49
-1,-2,-26,-24,-6,-20,-23,-34
-14,-20,-20,-49,16,-4,25,-53
32,-9,10,28,-108,-14,-7,52
-1,17,24,24,75,13,5,-2
-14,0,-39,-80,-72,-24,-19,-14
-22,24,46,56,75,20,-8,2
23,-17,1,2,71,17,-4,-62
24,2,16,36,6,30,35,58
-13,28,-2,28,-17,22,66,-47
1,-1,-21,-23,-15,-42,-102,55
0,-13,14,-23,12,-12,-30,2
-37,-28,-38,-87,-52,-53,-26,-62
-4,28,34,76,127,76,40,13
30,-14,9,38,23,9,27,6
3,4,-20,-33,-54,-37,-36,14
-4,4,2,44,116,17,17,-42
1,-2,-3,-27,18,-16,-27,-5
-13,-12,-27,-64,-128,-63,-42,23
4,16,-16,3,-128,3,32,-27
-17,-19,-26,19,27,4,-19,36
8,-5,73,23,57,10,-8,-33
21,18,-14,-11,9,-1,18,31
-31,-6,2,-20,-16,-7,49,-15
-20,-1,-22,-45,-85,-34,-29,-112
40,11,-2,20,98,34,-11,107
-8,-22,-28,-13,-23,-33,-40,2
1,-32,-20,-19,-16,1,27,1
26,13,18,34,-71,-3,1,85
9,12,-5,4,8,-3,-7,17
-10,-10,-12,-12,4,-1,-4,-16
-9,-6,-4,-9,-7,-3,3,-27
-9,-13,-12,-22,-12,-6,2,-10
-27,1,-4,-32,60,-10,-23,-85
-22,0,-4,-44,-128,-36,-21,3
45,16,55,127,127,50,-33,26
1,-18,18,56,127,47,17,24
-5,15,-39,-9,-109,-16,-6,23
-13,-1,11,-14,7,-10,-9,-8
-24,-18,12,-14,10,-12,-16,-42
-2,-27,-18,-28,-77,-23,-11,-29
21,36,24,3,-20,9,28,31
-9,6,2,-37,73,-7,-13,-22
-1,-16,-30,-11,-128,-44,-26,27
-9,6,2,-37,73,-7,-13,-22
-1,-16,-30,-11,-128,-44,-26,27
8,0,43,58,123,53,59,34
7,3,-13,11,13,-13,-39,-26
