Channel_1,Channel_2,Channel_3,Channel_4,Channel_5,Channel_6,Channel_7,Channel_8
2,-1,-8,-7,-12,-2,-5,-1
39,45,127,125,-128,-49,-27,82
23,53,0,43,127,69,34,44
-21,-7,-38,48,96,28,5,-49
-34,-51,-26,-89,59,-43,-5,-65
7,16,114,114,-42,25,58,-10
34,30,-26,45,10,28,-36,49
-31,-13,-55,-55,50,-37,53,-32
4,-11,-29,-10,54,55,12,-26
18,-4,-40,60,127,25,-57,-61
8,21,40,45,-63,-17,-20,127
-56,-36,23,-28,-45,-49,-57,-81
3,-7,30,-45,47,22,13,-29
21,40,-57,33,-104,48,54,-2
11,-2,6,35,105,27,4,10
-19,-27,-112,-35,7,-1,11,-3
-27,-29,-25,-103,106,-29,0,-55
-44,-35,16,-12,127,22,-2,-71
-20,11,109,40,124,47,108,1
89,50,-23,112,127,23,-22,127
6,6,5,20,127,-6,-38,-71
-14,-21,7,-39,36,-18,-22,-72
-15,-24,17,-67,-128,2,-54,-6
-28,-12,-38,13,125,-33,-40,45
-28,-22,39,50,-12,0,3,-54
17,10,-39,-26,64,3,8,-15
36,37,30,127,127,116,69,86
-16,-2,64,20,-36,-9,9,-38
-20,-33,29,-25,-21,-27,-9,68
-48,-13,13,-20,34,13,61,-41
6,0,-45,-17,-10,15,29,14
8,-6,-35,-24,32,84,40,-1
12,22,61,35,89,-99,-55,94
-10,-27,-53,-35,-128,-23,-15,6
-11,-5,55,-19,51,-13,-22,-51
-23,-35,-75,-95,-57,3,-15,-26
-7,-8,-69,-47,-74,-9,70,5
-4,38,127,127,127,105,-21,-101
-1,9,27,15,-18,-6,-25,-5
10,-8,72,4,-32,-22,14,34
9,8,-38,-28,-1,-59,-66,-107
-9,-29,-92,-63,-125,12,35,82
-23,4,43,69,127,-16,6,22
-5,16,67,-29,-4,-27,-54,14
42,1,14,-22,-106,-6,-56,20
-6,23,62,96,-5,39,19,30
-5,41,124,-35,-6,-29,-29,66
19,-15,-107,40,42,4,-39,-11
-15,-11,-75,-49,-41,-3,-19,-9
19,10,83,-29,-128,-29,32,15
11,22,13,-22,-128,-6,47,43
-41,-1,-109,-5,127,-61,-44,-66
-19,-5,-29,-48,-128,38,46,-64
17,3,-20,19,-128,-67,-70,57
-4,28,17,46,50,7,-5,32
-19,-26,19,-40,-106,-28,-3,-34
5,-20,-115,-23,-99,20,56,4
2,41,127,-68,-42,-49,-102,-30
22,-10,56,26,127,6,38,-2
22,56,-15,1,-128,-10,39,123
-5,3,11,23,5,42,-13,-13
-28,-51,-97,-63,127,-41,-56,-51
-34,-26,-59,-83,-128,-28,14,-25
-53,8,44,54,127,32,67,-86
61,14,33,5,-18,3,-35,-4
2,0,-71,-80,127,-50,-85,62
-11,-34,-81,38,-128,10,25,-14
44,35,127,-19,-38,-1,33,-8
3,1,-43,-45,106,10,-10,71
-49,12,40,36,-46,42,92,-128
18,11,-26,-42,-38,-43,-66,127
30,-6,2,-12,-77,49,24,56
-34,-35,-12,-24,-56,-58,-44,-86
-10,-8,-17,-17,14,21,92,65
16,1,6,-4,-128,7,-21,-32
-13,5,67,-10,127,60,-15,43
2,2,49,37,63,-14,37,-14
-14,5,-11,-14,-126,-18,-11,-50
-2,3,68,5,95,-4,-21,4
-12,-21,-24,7,64,23,-12,22
-7,-13,-105,-117,-101,-80,-26,-9
-36,-29,-3,31,127,127,127,-69
75,64,12,93,-128,-3,50,127
37,33,-32,16,125,-6,-80,32
-28,-29,-5,-46,-7,-37,-23,-39
-20,-14,4,-3,68,19,-6,-7
-37,-28,-59,-39,-65,-17,-1,-82
24,16,93,-7,60,27,-22,-8
-26,-37,-24,-49,3,-65,-43,-65
4,-6,-89,112,90,41,49,64
39,27,-15,26,-23,42,5,15
10,26,89,34,38,-19,19,88
-17,-15,2,-31,-3,-21,36,-25
-14,-17,-53,-34,12,42,29,13
-20,-5,-57,-65,-128,-19,-71,-128
22,3,18,17,-35,-21,-81,69
-2,-8,2,26,99,-74,-9,43
-22,-7,-11,2,13,-4,19,-70
-30,-35,-58,4,41,36,-15,17
17,-3,6,-7,-6,-10,-23,-24
-4,-1,-54,-79,28,-32,2,37
-20,-20,15,127,127,86,16,-80
2,13,62,12,100,9,21,-21
-9,-20,-103,-57,-36,-21,-9,90
-44,-3,54,-128,-128,-47,-15,-112
47,7,43,127,119,83,127,127
-24,64,127,-4,69,23,-7,-90
39,14,-29,-54,-11,-46,-80,-58
5,-4,-1,-13,-26,-45,-57,53
-23,-14,37,-40,52,-45,3,8
-41,-35,-82,-126,-128,-60,-46,-38
11,33,107,127,127,106,49,-21
0,-17,-53,-55,-37,9,-5,-44
-11,-18,-39,-27,-72,25,33,21
5,-12,29,-22,11,4,14,-3
-11,-15,-31,-2,-17,4,-37,-14
-1,12,11,13,47,-24,-14,19
2,34,58,-1,-63,-54,-27,-33
7,9,41,25,-28,15,15,-48
47,2,-12,9,19,7,37,127
8,-10,-17,-3,-20,-26,-46,-52
-5,-1,-6,-10,3,-3,-2,69
-41,-31,-89,-39,2,-13,-33,-40
-25,-33,37,-19,-128,0,80,-73
45,84,86,61,127,19,-51,69
-27,-27,75,-8,-128,-41,-36,-11
-5,-19,-67,51,73,14,22,-59
48,15,-69,-14,14,3,52,127
26,43,54,-12,-43,0,-2,54
6,-12,35,-3,12,7,12,-2
-19,-16,-23,-128,73,-96,-87,-21
2,-15,-45,127,-8,118,65,-15
-32,-17,-37,-18,79,-21,11,-55
-7,13,5,-31,-75,-78,-17,57
2,-15,-46,-25,68,-16,-14,-39
-12,5,-10,-68,22,34,-13,18
-6,-4,37,56,-37,-68,0,-14
-19,-28,-35,-13,-88,16,49,-7
38,20,-42,-29,127,30,-20,36
-5,5,51,69,127,30,-19,-38
-15,9,81,-39,-128,-24,5,-23
4,-6,-75,27,51,9,-8,4
-10,-8,-35,-36,-6,-3,-7,-12
-15,8,50,-10,-10,-43,-39,19
26,-16,-64,-17,19,-10,33,17
-10,0,15,-6,46,34,20,-48
-35,-14,-25,24,-128,-10,-28,-15
-47,-10,-93,-128,-25,-95,-33,45
76,33,50,127,127,127,-9,-118
71,20,23,6,-22,-20,2,127
-5,-14,-17,-27,-32,14,4,31
-35,-4,-28,-23,-32,-58,-5,-49
-40,-37,-37,-26,-10,8,53,-42
-8,1,60,5,-67,5,-38,14
-14,5,-21,-14,23,-1,-19,-69
14,17,16,-45,-60,-42,-7,-14
-9,-12,-77,23,19,-24,11,57
7,-8,44,-1,55,-17,7,-35
15,-3,30,-26,-128,-6,-7,75
-16,-31,-4,38,48,31,14,-1
-15,5,-10,5,127,11,-28,-55
-12,7,-17,-88,-128,-35,-8,14
0,1,-35,36,36,33,40,-13
-6,0,-50,2,38,-16,-34,-29
1,6,18,-17,-17,69,33,-22
-13,-21,-85,-128,127,-109,-46,-18
27,-3,26,71,-49,-3,35,52
31,28,56,127,127,107,37,68
-19,2,30,14,-112,29,41,-83
-27,14,1,-23,-35,-31,-35,2
-11,-21,-12,-48,33,21,-68,0
20,8,-61,-63,-128,-68,14,13
-3,-13,55,-48,-128,-55,21,16
-15,-15,-75,66,81,28,-8,-12
-25,-22,-27,-12,62,14,-6,-51
-10,26,52,-11,4,3,11,5
-25,-21,-28,-26,-32,42,48,-27
-19,-32,-17,-6,-17,-20,-25,-80
30,27,71,-9,-41,-28,3,41
46,45,-24,32,-51,-8,20,76
-5,8,28,-1,1,11,-13,30
-18,-14,-33,-8,-20,9,-8,-106
7,24,30,-32,-16,-18,26,32
-11,-1,6,33,-128,-69,-79,-57
-33,-27,2,-33,-122,27,11,-43
47,-2,36,69,-128,14,22,3
35,10,25,11,127,51,41,119
-32,-8,-33,-8,-41,-43,-27,-74
3,7,-41,-16,-25,-19,-27,-32
-34,-5,44,-51,-54,-7,-7,-34
-29,-29,-12,35,-50,-21,-8,-41
-5,-9,-14,-44,127,14,-9,-20
-24,-15,-6,76,-1,-12,10,-23
20,16,-83,28,-128,5,14,60
0,4,50,46,125,32,-26,-44
-7,-16,1,-32,-36,-10,5,23
-10,-13,-39,-22,92,-30,-27,-55
39,1,-44,-31,-128,-16,-5,35
20,62,127,14,30,10,47,16
-9,-20,-59,-31,7,-2,-6,93
-6,9,-9,34,127,16,-32,-60
-12,-25,-4,1,-65,2,18,4
-33,0,-4,-17,69,51,14,-48
11,18,62,61,64,22,-5,-53
56,14,-29,-46,-7,-12,2,123
-24,-14,-3,-21,59,-2,-46,-38
-55,-34,-77,-121,-128,-108,73,-105
7,-16,-36,69,-23,42,37,46
-12,-1,31,4,-2,-67,-128,-34
36,24,49,-10,3,-3,0,-22
11,21,11,-29,-29,15,4,51
-32,-29,-34,-24,74,-42,5,-63
-32,-26,-38,-7,-128,10,-31,4
4,28,15,37,127,-2,-5,-33
8,-8,68,-64,-128,-49,42,-89
28,23,39,58,61,47,52,89
13,-2,-75,-20,53,-20,-21,98
-13,-29,-5,-25,-128,-24,-5,-17
-16,-16,-73,19,127,36,-30,-65
-22,2,28,-23,2,5,4,6
-36,-10,-6,-114,-23,-28,-6,-47
3,4,44,127,-128,119,95,-77
36,21,-1,22,64,-67,-69,6
-2,-38,-16,-27,-10,-24,-22,36
-26,2,-22,-13,19,7,82,-52
0,22,-43,-42,17,12,5,-71
19,29,127,-6,-21,-63,-128,106
-7,-16,-38,32,127,19,5,-16
-17,-36,-74,-45,-128,11,21,-5
3,31,38,65,127,65,33,-37
-3,-10,102,-16,29,-30,-2,3
-4,-2,-70,-62,-128,-12,-13,9
-35,-37,-10,18,56,-6,-1,-9
28,14,-85,26,-116,-35,-14,-36
31,38,76,-1,-46,-4,22,127
-16,-13,-13,-19,-5,-24,-14,-31
-21,7,-38,-39,60,19,20,-97
-14,-65,-42,-7,-128,-29,-23,65
13,22,-2,-19,-94,-45,-24,-38
9,-8,-36,21,127,65,23,115
-10,13,116,-45,-35,-62,-18,2
-30,-1,58,-38,127,35,-8,-27
-30,-4,-69,106,-54,-18,39,-52
28,5,-91,29,-45,24,13,31
3,54,127,19,69,11,-1,-73
58,27,17,-5,6,-14,7,127
15,-7,-73,-15,-34,12,-18,50
-13,-35,15,-14,24,-34,34,21
-16,-31,-9,-54,91,14,-25,2
-1,-3,-49,-7,-128,-82,-63,-10
-26,33,9,18,7,43,48,-89
31,-12,-28,-25,31,-13,10,26
-6,3,4,-8,-5,7,-38,-18
8,4,10,-18,-5,21,4,3
-16,-19,28,11,-84,34,23,-21
-21,-29,-71,-73,-46,-55,-32,69
12,-1,-98,64,127,6,-28,-72
37,16,14,81,127,79,30,119
-19,-36,64,-3,-23,-73,-16,-10
-11,-49,7,3,127,68,-21,-61
23,46,-4,-91,72,-19,127,15
34,34,-15,98,124,11,-43,102
-2,-12,6,-8,60,-11,-31,43
-15,-24,-78,-52,-80,-27,-24,-43
-53,-20,19,-10,65,18,-15,-69
-29,-44,-13,5,-27,-59,8,-39
-22,4,-17,6,127,30,-9,-51
36,7,4,7,-93,48,53,69
12,22,-4,3,-28,-9,-14,4
-30,-29,45,-75,51,-84,-56,10
5,18,-20,98,127,42,-1,-38
23,21,17,2,-29,17,36,-7
7,-39,-42,7,23,1,-12,69
-5,-30,-51,-41,4,3,-9,-12
-10,1,61,-6,-48,-40,-22,86
-14,-12,-61,9,-55,57,45,-107
15,22,15,-2,-8,-40,-15,18
48,28,-20,-27,-128,-28,12,108
-12,-9,-40,13,8,-8,-33,22
-20,17,127,-9,-108,-14,-12,-16
-6,-23,-30,-29,-16,-6,18,-22
-30,-34,-22,21,-67,-6,-22,-13
2,-17,-9,-5,26,6,-7,63
9,-15,-27,-22,105,24,29,-30
-16,-1,39,18,127,-1,-14,-38
21,1,36,32,-70,39,12,-37
14,2,-57,13,127,34,28,65
-31,-1,15,-18,58,-20,-29,-15
-6,-10,-36,40,26,-19,0,2
-8,-3,-35,-25,36,1,-2,-31
-23,8,41,10,17,4,14,-71
29,29,120,-72,79,34,14,-7
7,-16,-47,24,-113,1,-27,98
-51,-58,-65,38,-21,18,49,-52
65,69,127,65,127,59,9,86
16,3,-15,-27,-20,-37,-50,51
-44,-42,-116,-57,30,-17,-8,-85
-24,-10,39,-9,-115,-22,-18,-24
-15,12,32,-11,-128,-27,-1,-24
32,-43,-27,-105,-123,-70,3,33
-22,7,-97,127,-3,32,35,4
-30,5,97,-27,75,-58,-59,-56
2,54,-21,22,-128,26,-1,20
2,-7,-52,-17,41,-6,27,-91
15,-37,-33,36,127,54,23,-23
10,39,45,-42,51,-60,-54,111
-5,-13,6,-28,-108,59,49,14
-41,-38,-39,7,-128,-62,-31,-35
-17,11,-53,36,94,-12,-4,-58
10,33,21,8,24,40,65,20
-9,-51,3,-78,127,-13,-82,2
7,-35,-19,-7,77,-23,-73,-57
-10,14,-41,101,25,-41,35,-22
-27,-20,61,23,-2,15,23,-1
14,36,-58,-30,101,16,-15,-23
18,32,34,-13,-128,-20,11,57
-15,-25,-6,-20,67,6,7,-39
0,-2,8,-39,-128,-44,-23,9
-2,-12,33,-26,16,-7,-21,-3
-9,-1,8,48,127,50,3,-75
-33,-25,-24,-57,-8,28,-79,-23
-36,4,-62,24,-90,-105,37,-37
127,19,4,22,71,2,101,127
51,37,50,2,-10,10,-13,127
-12,14,-3,-43,2,-22,-56,-35
-53,-61,8,9,-76,3,33,-48
-28,-11,-65,-2,50,-5,-17,-54
-10,-2,16,-42,7,10,-25,-25
1,13,13,19,-128,-51,22,7
12,45,106,85,127,50,2,-4
-44,-23,-101,-56,127,-43,20,-86
24,0,111,101,-91,43,28,23
35,8,-79,24,-17,29,-16,102
-26,27,127,-14,-19,-46,-2,18
-15,-33,-54,-31,-17,-25,-40,-104
19,1,-42,-69,-128,-28,17,39
-19,-26,-33,0,116,-4,-30,5
26,1,43,6,-51,-17,30,57
-17,-42,-65,-33,-20,10,3,4
-26,4,-83,32,-128,-18,23,-71
38,71,89,-15,58,-15,-11,97
-1,15,59,-2,-99,19,-11,-14
-32,-24,-59,-103,47,-20,-30,-92
11,20,-69,91,-89,-1,46,41
-3,-34,63,-20,-128,-65,-29,-27
-5,5,42,108,127,76,41,-8
-21,-23,-62,-21,17,31,102,-12
22,-20,2,-34,-17,29,-64,65
-4,-21,-71,-38,-13,-90,-93,-6
-13,27,15,-30,-46,-41,-11,-16
4,16,-5,11,-1,53,75,27
-29,-32,-32,-5,39,32,11,-38
15,-12,-70,-60,-69,-2,-19,-75
69,48,37,59,70,17,25,127
11,38,108,11,51,9,6,4
-28,-28,-42,-50,-16,6,-22,-28
-59,-60,-29,-8,-72,-54,-32,-71
2,-20,-21,-34,-128,-55,43,26
-7,9,-51,8,-21,9,9,-48
-7,33,25,4,40,-7,-39,-28
21,45,72,-47,81,-20,13,-2
25,-14,13,30,-128,22,17,104
-21,-30,-51,-15,-26,-39,-44,-128
-11,-37,-84,-4,26,33,3,0
-4,-12,-7,-25,53,-48,-57,42
32,52,48,29,-37,63,52,17
-2,-27,20,23,29,14,2,0
11,-30,-99,-45,-22,-32,-8,4
-71,-3,48,-87,39,-16,32,-78
2,33,44,127,127,127,127,-21
41,-11,-16,-3,-38,-9,-115,70
28,8,14,-39,24,-75,-30,8
-39,-37,-28,-128,-128,-99,25,-20
34,76,127,119,-18,56,34,-45
-9,-12,-43,-28,-124,-2,-14,6
-16,-20,-87,-9,-12,5,29,3
-31,-34,-39,-43,-48,16,-34,-86
-29,-44,-2,-41,-46,-3,-18,22
-18,18,-10,-15,127,-41,-9,-32
69,14,-22,17,-128,-4,68,0
47,38,86,74,127,4,-9,127
-22,3,-21,5,127,16,1,-7
-22,-20,-33,-31,51,-14,-49,-59
-33,-3,-9,-17,-114,-23,-26,-46
-2,13,1,-7,-27,-9,-5,0
-16,-40,-50,-67,71,106,13,-20
-12,16,2,68,127,-60,15,-45
15,-13,31,37,-124,-5,15,31
18,-20,-6,69,-80,-6,-32,4
-1,42,-65,-11,20,41,13,3
-36,-10,49,-21,127,5,-31,-86
14,-5,-49,-120,-128,-69,-43,15
55,35,42,127,83,48,20,84
8,24,-41,40,-31,-13,-21,14
-19,-17,-19,-16,-3,0,-13,-45
-30,-33,-25,-11,-39,-13,-21,29
-49,-25,-112,-56,60,-92,-22,-56
-12,6,35,-24,62,28,73,-52
43,18,9,81,127,94,54,126
-2,-49,-13,1,-32,-18,-62,-15
-50,-42,-52,-39,0,-18,-8,-103
37,13,-71,-97,-128,6,-1,-17
27,29,-39,14,-60,-15,0,66
-8,45,127,60,102,32,4,1
-4,-16,31,-12,23,14,-76,-37
-12,10,-57,-24,16,-55,14,9
5,-7,-18,-22,-128,-13,43,46
21,-4,-50,-14,4,28,-4,-3
10,-57,-19,14,97,16,-5,-37
-33,24,-36,-92,-12,-48,-43,3
-55,2,-9,11,-61,22,75,-41
31,34,-49,107,-35,127,36,-11
87,66,39,-12,97,-109,-100,127
-36,-31,-12,-36,16,-18,-36,-6
-54,-11,-31,-100,-128,-76,-2,-66
-43,26,52,125,127,127,91,-74
43,-33,-11,96,127,90,6,79
57,49,28,-27,67,1,-13,114
-47,-22,50,-58,-128,-120,17,-33
21,-25,-69,73,37,34,9,24
-20,29,58,13,-128,-15,18,-57
6,-28,-70,-4,13,21,2,-16
-5,-23,-70,-8,45,10,-39,42
-4,40,127,-29,58,24,29,-46
5,4,18,-92,-128,-87,-22,-2
60,15,-13,127,127,72,31,116
11,38,24,-23,50,9,15,-57
-47,-25,-27,14,58,6,15,-72
23,-15,-10,-60,-128,-74,-13,19
4,29,2,28,74,-21,-62,20
-26,-23,-29,-14,-91,24,84,-7
9,-20,-56,14,127,19,-48,-1
18,11,16,-55,127,-29,-90,-62
-5,-38,-15,-60,-128,-95,51,80
-14,4,91,62,127,41,47,-18
-2,57,84,9,-85,-33,-3,-69
-6,-17,-60,-52,18,22,-6,15
-45,-70,-76,-55,127,-2,-23,34
16,89,30,-16,-45,-59,-66,-56
108,11,-4,117,-128,42,119,71
30,50,53,15,127,60,34,25
-16,-35,-112,-60,46,21,-26,64
-41,8,86,-89,-128,-68,-55,-120
-2,-37,-128,35,-128,55,94,74
43,33,127,45,-39,-39,-45,111
-2,-39,-85,-12,-8,-27,-40,-25
-4,18,-33,-63,13,39,-11,-38
-8,-10,-47,127,79,18,19,-41
-48,-73,1,-47,29,-54,-3,-30
-21,12,-25,46,-128,54,127,-13
88,69,122,37,110,22,-75,127
-52,-34,-79,-70,-53,-86,-87,-79
16,38,67,76,63,113,127,34
14,-4,-87,-94,-128,7,-16,-105
104,35,127,127,-40,-2,-103,127
10,-7,-34,16,5,-19,-49,21
-70,-20,-57,-22,2,12,32,-108
-45,-52,-104,-29,-56,-22,24,-41
18,16,93,-32,-60,-61,-81,-24
8,9,2,47,-119,10,25,68
-36,14,-19,-31,127,36,-23,-32
-46,3,45,68,127,12,45,-102
-16,-57,-106,-128,-128,-34,24,-61
22,12,-50,127,127,57,5,27
32,49,126,70,-43,20,-19,28
-42,19,-3,-128,-128,-124,-56,122
-27,-46,-5,47,127,59,40,-86
78,2,-95,95,20,17,19,50
24,-15,-17,105,24,43,16,56
-62,-15,-34,-77,21,4,31,-86
-20,44,45,-18,-51,-21,40,8
-3,-27,-15,-14,-128,7,-81,25
-14,-55,-128,-34,-97,-92,-30,-50
16,28,123,3,54,40,71,28
21,3,58,-35,29,9,56,40
-8,-33,-86,-35,-11,-15,-100,5
-12,-5,-48,-47,13,25,23,-17
-34,-3,104,55,127,-4,0,-75
10,36,-24,12,-128,55,32,10
71,27,36,-10,-33,-74,-64,22
-32,-7,-11,-25,-32,7,-1,82
-59,-50,44,-73,-33,-25,60,-90
35,53,-69,62,26,-9,-25,59
5,-16,111,-53,-98,-8,2,5
23,-5,-55,-41,127,-17,27,-10
12,16,30,103,127,92,52,83
-1,-6,-70,10,-5,35,-12,-13
-47,-1,4,-75,44,-108,-67,-68
3,43,115,58,127,55,2,-80
-29,-36,-71,-128,-128,-93,4,-43
29,-7,-26,127,127,113,20,71
17,-8,-10,30,75,93,28,-62
-29,-7,-28,-64,35,-4,19,40
11,-1,75,-36,-42,-43,-28,73
-35,49,127,-84,28,-52,21,-128
41,10,63,72,-78,54,98,127
49,-20,-107,-49,-128,-36,-92,51
-33,-25,-9,42,42,33,-49,-53
-25,5,23,-3,76,-40,116,-66
-12,32,100,-120,-128,-109,-128,20
10,-41,-47,3,127,60,57,-35
-12,-2,-11,108,-128,-26,33,43
10,10,1,-3,-41,13,1,23
52,37,49,-6,27,5,0,-7
7,-17,-61,1,72,46,-37,-13
-71,-75,-19,-57,-128,-68,92,-128
47,43,114,-79,-128,6,2,127
-17,2,-77,-10,58,-51,-40,-15
52,35,31,-14,26,-4,22,82
-40,3,-47,-32,99,-1,-50,-111
-12,3,-1,-90,-128,-58,37,-7
28,9,93,79,127,51,-34,8
-7,-10,-28,14,94,11,9,5
-38,-41,-44,-119,127,-35,-52,-22
-58,-68,-114,-8,-128,-78,-32,-97
15,47,70,127,127,99,127,15
54,48,124,55,46,59,26,86
-4,-16,-14,-48,-41,-46,-72,2
-18,-19,-57,-51,-10,-30,-31,-20
8,45,47,-24,-93,11,-28,10
-20,-10,-36,-71,87,-9,24,-30
-25,-29,-26,82,127,37,-35,9
-5,6,12,43,34,-57,-32,-128
56,16,40,10,-9,54,63,114
-7,-24,-33,19,87,-37,46,50
-7,28,69,-62,13,-1,-67,-13
-2,-11,-101,32,-53,47,60,-52
-22,-16,85,-61,124,41,-23,55
28,23,90,67,-43,-9,12,33
-18,-1,-70,-3,-9,22,56,-24
-14,-25,-18,-111,127,17,-37,-82
22,10,58,127,-128,-20,-10,127
5,2,-4,-4,69,28,21,-20
-60,-38,-10,-10,7,7,-26,-89
-21,-30,-72,-71,57,0,-24,-40
45,10,-123,-20,41,18,53,25
3,25,125,122,127,10,16,60
48,81,15,26,127,7,-19,6
-28,-29,-45,-69,-105,-36,8,-1
-49,-44,-10,-103,-52,-66,-52,-77
22,-14,-33,64,-128,37,53,51
19,18,-17,83,127,26,22,29
-35,-36,110,-27,20,-11,-14,-61
7,1,40,-2,-32,33,-36,-16
-30,-6,-19,-12,-25,-54,-8,-13
38,21,-9,11,-5,11,6,-100
35,11,-13,-16,-87,-43,20,120
55,-58,28,16,62,-19,-84,107
-36,-2,-46,-11,-24,77,16,29
-27,73,127,-5,3,-119,-53,-93
-11,-26,-93,-32,-47,-4,23,-59
0,26,79,3,-128,-15,-34,19
-31,-8,24,-14,109,35,43,-17
-4,-40,-12,33,46,-6,-40,-64
-13,0,-41,-65,-128,-67,-13,28
-33,-28,14,40,83,15,57,-115
21,3,-37,-123,127,-23,-53,38
39,37,57,99,101,127,35,65
7,-6,-43,-66,-48,-128,3,53
-12,-30,-78,86,127,59,6,11
-7,-31,-7,-27,-128,-32,-14,-2
2,51,111,-38,-51,-46,-47,-51
-30,33,-39,110,-128,62,44,-20
20,-2,55,58,120,36,39,-54
80,19,-51,-87,115,-8,17,102
-24,-17,-34,-13,-128,-50,9,84
-26,-11,37,-34,-128,-22,43,-43
-55,-49,-32,9,127,6,-79,-35
-21,-24,-63,-35,-29,-10,-90,-44
67,47,91,8,34,-12,50,-67
53,12,-31,53,53,31,35,127
-26,-10,93,23,39,65,-11,0
-25,-21,-24,-94,-128,-128,-16,-31
-6,10,0,83,127,37,12,-36
12,42,71,-8,-4,16,17,-8
-11,-20,-24,6,-30,55,37,38
6,-18,-114,-33,5,-43,-7,2
-5,16,127,-6,5,-24,-8,-28
-53,-5,21,27,0,8,-9,18
51,22,-7,-15,-122,13,31,6
20,-3,2,-51,19,54,-46,-28
-4,-7,-3,51,127,-48,35,-37
-22,-19,-20,-45,-128,-55,12,-3
-11,-20,-6,20,72,17,-33,16
-16,11,76,-40,-61,-40,-45,28
-16,-40,-35,-89,127,-19,-12,-78
-6,-25,-35,-37,50,33,32,64
28,6,-7,121,82,66,38,16
-30,3,-49,31,46,-40,3,-79
9,33,86,29,46,21,-1,61
-23,-23,22,-64,-38,-40,-63,-4
4,-3,-14,90,127,61,43,42
-19,-22,54,-6,1,-4,5,-128
-25,-2,-28,-75,-128,-34,78,100
2,-32,-113,12,10,-35,-128,-70
14,-4,-6,-14,-128,16,30,88
40,62,42,0,-40,25,20,-31
-24,-33,-5,-3,-33,-79,-54,-39
-83,-47,-32,-11,9,21,0,-78
45,44,-22,12,2,17,47,-51
57,11,-7,-17,-30,-46,-70,115
-20,-15,-35,-29,-17,-17,12,66
-13,8,51,41,127,-2,-23,25
-25,-27,-3,-94,-128,-47,-22,-118
9,34,26,34,121,50,3,1
25,-2,51,49,127,12,-4,36
1,-5,-54,-5,127,28,-37,-36
-49,-26,-47,-84,-128,-50,26,-63
-19,7,13,95,-119,16,14,-35
36,30,127,36,127,10,-24,71
-4,1,-88,-57,71,-21,-26,-21
-1,-23,-37,-67,-128,-91,0,-10
20,42,5,110,127,112,33,12
-6,40,110,11,127,0,-2,-14
-30,-28,-63,-45,-26,-31,-28,-54
-11,-21,112,-1,-24,10,26,-7
4,4,-17,-31,39,-8,14,73
2,35,-39,13,-128,-1,4,-45
22,-8,33,25,6,7,-23,24
6,-12,-70,-21,-21,-37,-42,0
-22,-5,24,-23,-33,-31,-12,-63
-14,7,-49,25,-3,32,-40,-24
20,8,75,-9,-59,-65,-59,-3
3,-23,-51,-72,-2,18,55,75
-7,-16,-27,127,127,87,40,18
-6,-24,-28,-9,17,-76,-87,-25
-33,-8,57,-16,-91,9,-26,-99
12,11,-63,7,28,6,38,10
46,106,127,46,127,22,31,127
-16,-48,-61,-39,79,12,24,-13
-70,-76,-127,-106,1,-43,-41,-85
63,43,47,46,-128,-64,18,90
51,40,29,70,-10,26,2,-11
-15,-32,-85,-90,-70,-25,-44,-42
-11,16,-6,-52,-40,-10,-19,-48
-12,-14,41,-32,-29,-58,0,50
-7,-7,-128,3,40,59,0,0
1,20,107,-23,127,0,-7,-14
-57,-15,-32,-60,-128,-78,15,-128
56,-7,71,127,127,85,80,17
27,-3,-4,10,-128,-28,-58,127
5,29,-22,43,127,78,2,-8
-22,-13,19,-13,-52,1,0,-88
-18,12,-14,-11,-29,18,31,46
2,-5,45,-9,-25,-31,-2,41
0,-4,-56,-16,-44,-31,-10,1
12,-2,-13,12,32,43,5,-18
50,17,1,-6,-41,-9,-7,65
-24,-38,-48,6,-13,-5,9,24
20,24,27,3,37,11,20,32
-30,-15,19,-6,-128,-45,-6,-37
36,9,23,-4,127,82,-1,4
8,14,-33,-15,-128,-114,-53,-43
12,53,6,111,127,73,83,107
-35,18,127,82,127,43,-10,-95
5,-13,30,-19,-47,-17,-18,-9
5,-37,28,-20,-49,-7,-5,23
-25,10,-15,-53,126,-24,-1,-17
-8,4,-39,-24,-128,-39,2,38
-19,-30,-12,1,66,9,-9,-49
-10,-17,-13,-68,-58,-68,-80,-58
-1,-11,-63,98,-17,43,16,24
43,6,85,17,33,14,52,27
24,4,-39,-10,-3,10,7,73
-10,20,127,4,-33,-11,-13,-15
-28,2,-70,-80,-17,-50,-9,-84
-19,-28,-63,-17,-128,-62,16,-20
20,20,60,29,62,44,16,94
-17,-11,-11,1,31,28,-30,-40
13,15,-43,-30,1,-76,-29,-6
11,-35,-86,-69,-70,-24,-17,1
-7,-32,25,73,52,59,93,-32
-22,6,56,7,21,12,-48,-95
53,9,-17,-93,34,-63,-46,77
1,40,-27,127,127,86,3,77
-27,9,-45,-62,51,-54,-23,-49
12,56,19,17,7,39,75,-83
56,0,-53,53,104,2,31,127
-11,-27,12,-11,-32,26,-4,-18
-34,-15,79,-10,-1,-1,-22,-44
-31,-40,-80,-35,108,14,-30,-101
-31,-14,-34,-42,-128,-46,-3,-8
21,80,47,54,3,31,35,78
31,11,72,12,87,51,-2,4
26,-62,-79,-31,-128,-27,31,-41
11,5,-7,-2,-8,-24,-29,96
-42,-5,28,-45,3,-25,-38,-88
-20,-40,-16,-30,-69,-35,-12,-3
15,-46,-61,53,127,94,62,48
36,83,33,-2,73,0,-29,32
-6,28,91,66,30,21,-16,-60
-8,24,90,4,11,-8,-10,13
-21,-32,-44,-15,-19,48,10,-38
-23,-25,-52,-23,127,-27,14,-19
14,-7,56,-74,-70,-40,15,24
39,19,44,30,-81,-10,-9,86
-50,-26,-4,-7,-6,-16,-33,-17
-57,-51,-122,-55,-39,-43,-2,-128
83,77,106,127,127,72,25,87
46,-26,-8,-9,-46,-17,10,127
-38,-24,-8,-32,-31,-33,-11,-94
-48,-39,-45,-85,-25,-47,-41,-50
-17,-5,-78,35,-127,26,55,-30
-8,1,107,59,31,1,-55,-47
-19,-29,-33,0,7,-20,-1,42
8,22,-24,-19,-44,-24,-16,-17
3,-2,-17,6,58,-12,10,-6
7,11,-20,-11,-60,-1,12,-33
-8,-10,-19,-17,22,-6,-6,17
-13,20,-14,-7,-18,-44,-64,-19
-30,-27,-16,5,86,18,-39,-73
-41,-43,-49,-42,-128,22,39,-26
3,0,90,98,127,-41,-31,-2
127,104,20,-1,-17,9,32,101
-9,21,-15,-47,70,-6,18,55
-12,-72,-76,-89,-128,-36,4,39
13,1,67,115,127,48,-40,-4
-1,21,22,25,25,36,3,-1
-3,2,-4,-23,59,-32,-26,-21
-36,-10,-44,-128,5,-128,-100,-63
-27,-43,-41,127,127,127,127,1
70,55,102,79,127,20,53,-3
21,8,-88,-33,-31,49,-20,84
-28,-21,102,-51,-21,-50,-26,-27
-23,-4,-46,-68,-20,-44,-30,-21
10,-8,-18,2,-45,-2,0,-64
6,4,17,17,43,16,29,37
3,8,-12,-13,-23,3,-1,-8
16,59,60,-1,-22,14,8,34
-29,-32,-10,-15,-56,-35,15,-23
-73,-53,23,-6,56,47,1,-107
107,46,-6,46,-21,-88,-85,103
40,-21,-57,0,16,4,31,27
-21,17,-17,-45,60,-2,-24,62
-26,-20,-27,56,-26,83,16,-82
-58,-39,52,-1,47,-30,-35,-80
9,-37,-71,-16,36,20,4,-38
67,28,22,-12,-7,-7,13,96
19,30,3,33,-1,32,32,114
-33,26,53,-9,21,24,26,-64
-23,-3,-53,-63,-8,-59,-12,26
28,25,38,43,-28,13,-59,48
-17,-6,45,-15,-128,-45,-10,-82
22,-19,34,30,127,57,59,17
12,14,59,76,127,28,13,63
-28,-21,-75,-85,-128,-35,-5,-31
-15,-4,-12,-2,14,2,-10,-13
-20,-18,6,-22,112,6,-33,-39
-44,-63,-67,-106,-128,-95,21,-71
38,83,54,23,-128,5,20,26
85,61,60,127,127,86,25,127
-44,-30,-22,-38,-31,-19,-20,-46
-42,-17,25,-45,-128,4,17,-64
-2,-36,5,7,74,-9,-17,6
22,-9,-93,-10,-48,3,34,30
-20,29,48,-20,-65,-35,-26,18
-30,-31,-67,-52,16,-38,-51,-66
-51,-21,-32,66,127,67,68,-79
61,30,55,-21,-59,-33,-13,7
40,-4,-57,-9,-128,-52,13,127
-8,0,34,12,-11,15,7,-75
-28,-12,-7,-12,18,25,-4,-41
-27,-30,-128,-5,-47,-23,-25,-37
-63,-4,127,-73,-27,-36,-28,-46
48,60,73,99,-28,55,-12,-38
-12,-16,-88,-76,43,-91,23,87
24,-43,-43,68,106,44,41,11
13,-4,-77,8,-51,7,27,31
-37,-14,65,-7,33,9,-35,-13
1,7,-24,-4,41,34,12,-28
-47,-21,-45,-128,-56,-128,-76,-46
-7,20,3,127,127,127,46,-41
87,40,55,65,127,46,17,127
14,-14,22,-21,-25,-1,-13,25
-23,-4,2,-45,-33,-30,2,-26
-36,-15,-47,-36,55,5,-6,-50
-6,13,44,-58,-89,-31,-8,-31
17,2,20,127,127,99,31,27
6,-6,4,16,-12,-6,-1,56
-34,-22,-121,-30,43,9,14,-19
20,9,31,-12,-100,-32,-38,-4
27,33,1,19,127,1,8,12
-20,-48,-42,-30,-128,-16,6,-15
-16,-7,-21,9,48,12,-23,-57
-12,-24,-20,-29,39,17,51,16
10,-8,-11,-40,-128,-74,-58,1
63,24,13,42,78,3,5,127
-51,17,42,1,-25,22,18,5
3,-10,-57,-31,7,8,45,-10
14,53,123,-27,46,-4,-40,-34
14,-20,-16,-15,-118,-62,8,-16
28,-25,-1,36,127,67,36,118
-13,12,-2,57,58,62,19,-25
-45,-38,-125,-33,-20,-73,-40,-106
4,27,40,-9,19,-2,-24,37
9,7,-15,-20,-45,-33,-2,39
-16,-22,32,-56,-77,-19,1,-3
-45,10,-13,65,21,16,7,-76
13,7,3,-11,-14,-21,-13,-48
14,-3,-28,-67,-31,-11,-12,-27
6,-13,-29,77,127,48,11,93
8,15,-3,-27,-108,-59,-35,-33
-17,-5,-16,35,89,32,36,15
-2,-46,-25,-25,76,22,14,6
14,9,-23,9,-18,4,47,42
0,9,-5,-22,-41,-27,-53,-82
11,16,38,-8,-65,-30,-19,79
-20,2,-32,-48,127,-17,-33,-70
-17,-24,-80,-27,-128,-33,43,-4
3,6,127,83,107,15,12,39
-35,-15,-26,-11,67,62,-17,-61
-13,-18,-62,-63,-35,-81,6,-31
4,21,114,27,54,6,-27,-55
79,69,114,20,5,14,11,127
4,16,8,-13,-37,-15,-14,2
-40,15,-18,-23,-4,9,-25,-8
-18,-16,-38,-59,-89,39,-4,-48
3,-41,-75,43,-41,-30,52,58
-51,-33,81,-9,7,-32,0,-97
31,19,-60,50,-97,20,3,32
34,36,-9,-18,7,21,-19,65
3,21,10,-21,39,62,15,22
24,-27,-64,9,29,-75,-5,1
-19,7,55,-21,28,4,-2,-14
-56,-46,-37,-33,-73,2,22,-97
-25,-6,-89,31,127,24,-27,-3
36,19,116,15,-61,0,-23,6
61,-2,-53,60,127,24,59,112
-39,-27,-33,-28,-50,18,3,-42
-30,-5,-16,1,97,20,32,-49
-4,36,-44,-6,-44,-23,-34,-67
78,67,106,-63,-128,-58,-71,108
-12,-28,-55,127,127,95,24,77
-23,-27,-42,-7,-40,38,71,-56
-17,-7,72,-17,-3,-22,-24,-36
6,-17,-7,-29,-73,-50,-55,-9
-3,7,-15,17,127,55,16,1
4,-8,11,41,68,-28,24,19
19,36,-17,11,23,3,7,-28
-2,-21,-40,-67,-9,11,-5,-25
15,-13,-57,-4,-128,26,30,59
-6,-8,28,-2,24,7,-34,14
-30,-12,18,41,50,-20,25,-26
5,7,23,24,58,13,5,8
32,40,20,56,57,61,54,-12
-56,-68,-31,-9,-15,36,74,-8
24,8,-2,-31,31,-61,-109,-1
43,38,-66,-32,-32,-24,-29,100
-5,46,127,-18,-4,-12,-22,-38
-22,-43,-35,7,18,20,8,-2
-35,-38,-107,7,15,-22,-9,-52
0,-18,-83,-6,-15,41,41,-2
13,30,65,-35,5,-14,-21,17
0,-13,30,16,85,-7,8,-50
15,5,-37,60,-108,33,61,81
3,-17,-5,21,127,39,45,18
-19,20,-12,-8,-62,-50,-31,22
-7,-35,32,33,12,26,-11,-53
0,-8,-104,-60,4,-9,11,-9
-34,-31,-42,-128,-104,-95,-112,-77
1,67,113,127,-30,58,-6,9
12,2,-42,22,-128,-31,26,-1
11,8,90,78,127,39,26,-34
-13,-7,6,-44,-61,-5,-9,3
-3,8,-33,-28,-32,55,22,15
-5,9,-16,-29,-89,-42,9,-10
-5,-19,-45,11,115,-50,-21,77
-25,-29,61,-24,-60,-30,-27,-51
14,14,20,-45,127,-12,-16,-13
4,9,22,30,-128,-19,3,38
-19,-49,-12,42,127,16,20,-30
28,44,10,-7,-45,49,49,54
38,16,-7,-41,-47,-73,-47,-45
-6,-11,-24,20,104,30,-30,21
-26,4,-25,-2,10,58,-5,-56
-10,37,84,16,11,-69,16,50
18,7,-85,-15,-13,-20,-16,33
-32,5,82,-35,-64,-53,-54,-71
-30,-49,-24,30,127,65,20,-60
-17,-6,-34,-7,-128,39,44,-63
47,10,-41,15,-108,-35,56,116
24,42,115,-16,57,18,-41,33
-1,-44,-30,-72,-62,-52,-24,-1
-27,13,-76,43,-128,-20,-7,-32
-67,-23,-30,2,95,-12,-23,-73
38,-9,116,10,17,77,25,-22
69,-5,-21,-21,23,-43,-60,36
-23,2,-68,-20,33,-53,-6,8
-29,-11,-67,-65,-128,-39,41,-41
15,-25,-76,29,127,99,11,36
-13,40,127,59,-85,-39,-33,-14
8,2,-47,0,-13,46,32,25
-23,-4,-99,-28,-30,-18,-27,-47
-38,-13,-11,2,-2,-19,-38,-17
-44,-32,-19,-50,96,21,24,-128
94,21,-10,39,-128,27,76,127
30,-16,57,46,101,10,-11,110
-6,21,-22,0,5,1,-17,36
-5,21,120,-40,4,-4,-18,-76
-23,14,-15,0,-20,17,15,-23
-21,-13,12,-18,-32,-20,46,-55
16,7,-94,-42,-19,-37,-55,37
14,-12,43,34,-96,11,-3,24
-28,17,70,36,91,-2,-25,-56
-22,-86,-14,9,13,-31,-29,-52
34,25,-65,-39,-28,-17,1,20
9,49,11,-11,-47,6,43,-2
-16,-20,-37,27,28,-16,-5,15
18,35,119,17,40,14,-1,66
-27,-8,-22,-41,53,-34,-19,4
-5,-32,-11,-128,-128,-109,-57,-55
14,44,8,127,127,127,72,27
20,-1,67,-23,-52,4,36,22
-21,-49,-37,-46,-50,-52,-34,43
-2,0,-24,-41,-47,-33,-6,-29
26,20,2,-2,21,26,-17,82
-19,3,61,9,-5,3,-32,-62
-38,-26,-34,-43,39,-17,33,-31
12,-24,-38,-9,22,1,-4,-1
0,13,67,127,-59,66,67,4
-23,-14,-28,9,90,-18,-6,-6
31,15,29,-6,5,-11,-79,-22
7,-16,-56,-18,1,27,-3,55
-30,29,34,-34,-40,-41,30,-48
-16,-32,-49,47,127,42,19,-5
50,22,32,-18,-103,-38,-44,5
-19,25,-9,11,64,10,27,-21
13,-19,39,10,92,36,20,-28
-7,-7,8,-18,-128,-5,8,88
-16,23,-20,-8,8,23,-14,-32
-7,2,0,8,3,-47,-20,-88
4,-69,-7,-7,-117,-19,-1,71
14,17,-53,3,125,60,30,16
-33,-51,-11,1,-50,-40,-51,-22
32,-9,-73,30,-47,1,55,14
8,68,127,21,17,-1,-48,0
23,53,-128,-39,5,-13,-5,25
-8,-26,-53,-35,-11,-59,-34,-5
-21,-11,-21,27,126,65,74,-5
9,-11,-11,82,-14,36,19,2
-46,-25,-36,-22,-19,5,8,-117
3,-30,1,-26,64,-30,-17,2
38,10,5,-33,44,5,-22,99
-10,1,20,-13,-128,-59,85,-17
-1,12,20,55,127,71,47,-36
5,-2,-9,-26,-80,-82,-128,-20
-17,-39,-86,-56,81,-8,-49,-8
-54,-25,36,13,-128,-66,60,-44
63,73,112,48,38,9,-5,19
19,18,-115,-61,-24,-15,-38,72
-29,-36,78,-23,5,7,-4,-38
4,-20,-13,-2,-54,-27,3,-7
-17,23,-6,-5,-37,-18,12,-18
-36,32,-17,-9,32,-11,-21,-47
9,-17,3,-4,-128,14,3,-25
18,7,-13,-28,-59,-22,-15,12
-58,-55,-9,-2,-14,59,42,9
10,-28,-52,20,127,-24,99,20
96,79,60,66,-99,-1,-76,54
-17,-1,-21,-28,-31,-35,-101,-9
-28,-29,-43,-83,127,2,-50,-30
-60,-58,-128,-128,-128,-128,9,-48
78,72,124,127,127,127,80,14
-13,20,127,-37,-53,-16,-11,33
-20,-25,-77,-64,-55,-24,7,-31
-8,-33,-38,-49,-15,-19,-1,-21
7,14,-5,-63,-42,-22,-42,38
-28,-27,-104,30,56,9,4,-28
5,33,127,58,10,27,19,7
-3,-32,-42,-27,113,33,-22,-26
19,33,-36,-3,-128,-16,51,10
97,56,-7,37,127,59,31,107
-10,-32,-128,-6,19,-17,1,35
-13,-15,-10,-16,12,4,-29,27
-44,-17,68,33,-45,-63,-13,-98
-61,-38,-39,-24,-40,-24,29,-63
10,-12,-47,33,32,25,-36,-11
18,3,54,10,-4,-8,0,-42
3,-7,7,11,7,44,45,37
-8,26,-44,-55,111,-27,-91,46
-29,-22,-36,-14,-128,-47,12,-40
38,41,22,64,65,71,60,65
-10,-49,72,12,11,-32,21,-20
-9,-18,-54,-15,-2,1,-11,-24
-36,-6,24,-31,24,-21,-24,-36
-4,1,4,-15,-128,14,33,-13
-23,20,13,19,127,1,-40,9
50,44,19,5,-31,-43,9,20
29,1,-66,0,-2,43,41,-41
26,-24,-16,-30,-1,-16,22,127
-21,1,66,22,61,0,-28,-32
-44,-4,50,11,49,14,-57,-112
-60,-70,-76,-128,-128,-128,-10,6
56,70,73,127,127,127,64,21
53,48,20,41,-128,17,19,53
-24,-2,102,-11,-70,-9,26,-14
-6,-53,-85,-59,-85,30,-92,6
-47,-38,48,-19,63,-58,-2,-73
13,22,-23,-20,-44,-6,2,26
62,31,23,58,3,-7,-1,101
-11,-17,-33,-57,54,-7,-33,-31
-47,-30,-49,-11,40,-14,37,-54
14,3,65,55,-128,34,41,5
28,43,38,35,69,-3,4,-16
-13,-41,-18,-8,38,9,-10,14
-17,-38,-24,-36,12,62,-35,-27
-47,-14,-24,-28,23,-72,-13,-60
5,7,-3,-101,-8,-50,-27,1
37,55,-3,114,5,47,91,-24
32,2,20,17,-3,27,56,69
-27,-52,-10,0,23,-6,-87,-80
6,-14,-68,7,-31,9,-1,11
-13,-9,-41,-42,-19,-34,-43,0
-1,8,1,-17,68,-4,-13,30
-9,-1,-41,-22,-128,-38,28,-33
40,33,37,39,127,44,43,8
-40,-50,7,-42,-28,14,-48,-39
-16,-14,-13,84,125,-25,-32,-33
44,51,-64,-10,13,46,25,47
7,-11,60,-8,40,-22,20,32
-10,-28,39,-27,-84,-13,-1,-48
-18,1,-28,-59,-122,-57,-37,21
23,45,127,108,47,48,3,11
14,-48,-63,-62,34,-14,-30,-55
-6,-13,-87,60,-76,6,21,55
-10,12,-35,-17,18,15,20,-4
-19,-11,0,-48,16,-22,-67,-57
35,-2,-10,-4,-128,11,34,74
-7,45,-54,35,-128,-36,-37,-13
-60,-104,83,-11,110,-6,-35,-56
-13,0,-68,-22,-128,-8,13,-116
68,45,72,88,103,82,63,127
3,0,-120,-28,8,-83,-17,-4
-10,27,98,-15,-13,-24,-4,26
-28,16,27,10,-8,-13,-30,-44
-41,-45,-32,-102,42,-3,49,-55
35,7,-4,121,48,81,21,9
27,-2,-2,-4,10,-66,-97,-4
-28,3,2,-4,-52,13,-4,8
-17,-19,-19,-27,14,9,10,-59
30,-12,-11,7,7,-18,65,52
23,45,17,-4,-42,0,-29,81
-18,-34,-21,-1,41,-16,-42,-41
-44,-25,51,-24,52,19,-28,-58
-5,6,-65,-50,-128,-105,16,-6
23,65,116,127,127,98,56,16
-4,-28,-7,-16,-56,-34,-51,7
-38,-43,22,-36,-11,10,-19,-37
-34,-60,-81,-53,-101,-74,-54,-46
21,55,-1,-44,127,69,55,3
32,38,-2,18,-125,-24,-33,9
31,-8,-14,80,-128,6,32,98
-2,-44,-53,5,51,31,-1,44
-23,-24,19,-18,-23,-52,-47,-42
-19,-9,-87,-35,11,4,-9,-58
-9,-2,36,-25,-30,-2,32,-28
5,29,19,-22,-71,-47,-34,20
-15,-15,-80,-33,78,2,-12,-11
42,-26,51,72,14,36,33,12
8,0,102,23,53,20,-2,36
-27,0,-53,-6,12,36,30,8
-6,18,74,0,-16,-56,-20,-29
16,0,19,-30,22,-44,-27,-2
-19,-29,-9,1,-68,7,-50,-6
13,8,-60,10,-31,-7,-1,11
19,64,-1,37,105,29,47,-39
-77,-58,-27,-28,108,13,-77,-75
53,1,-11,-32,-128,-51,23,51
24,46,42,58,67,49,55,85
8,7,-32,13,15,-7,-1,15
-24,-71,-24,-34,6,-51,-21,-21
-28,-24,-90,-46,-53,-14,30,-48
-62,-18,77,-30,22,-3,-76,-43
7,25,-15,47,-102,39,-11,-69
107,31,77,-18,-128,2,70,86
-21,-10,95,65,81,37,10,61
-43,-28,-7,-46,22,-43,-29,-94
-6,-64,-97,-125,-128,-118,-35,53
27,13,19,96,56,55,2,29
-5,54,-31,-21,-93,-37,-31,-22
-2,9,-52,-6,35,4,4,-52
-2,-13,-29,-18,-41,-24,4,27
-21,7,51,2,-38,4,6,-13
-8,-24,-6,-1,-7,-9,-1,5
-11,-4,2,-3,12,-7,30,-36
-4,1,-1,-19,-29,-13,-56,-2
-20,-7,-2,-26,18,-64,-40,-73
8,-16,-33,-92,-128,-60,34,48
23,4,2,127,127,66,31,41
-8,14,44,-1,27,0,-26,-23
-4,10,-6,-24,-20,-20,-27,-23
-25,-35,-12,-22,-4,10,13,-33
-31,0,23,-9,-7,17,-36,-42
-20,17,-32,-14,24,8,39,-30
36,5,0,-19,-128,38,-28,-48
58,2,-20,26,127,-32,-5,101
-5,-40,-31,-28,-128,-35,-6,70
-27,-18,-18,-28,-128,-38,-13,-44
15,42,127,75,100,63,56,37
17,34,-74,-12,23,-9,-15,-19
-20,11,48,-47,-128,-40,-54,-28
-17,-9,-42,-5,55,-2,16,-17
-22,-29,-59,11,127,42,19,0
-25,5,72,-9,-128,-47,-31,-37
29,-18,41,44,65,-5,8,17
21,3,6,-21,18,-12,-23,49
-22,-15,-49,-79,42,-2,-29,-26
-20,5,3,-13,-128,-66,12,-42
4,-32,-11,31,97,39,5,-40
11,24,-38,7,11,18,20,46
-21,-11,18,-45,-76,-29,-24,15
-52,-22,-27,-13,4,-5,-21,-69
44,45,29,17,-73,-6,80,-52
35,-34,-20,-15,127,55,-2,127
-21,-57,-27,31,-58,-18,-48,13
-20,33,35,-66,-78,-11,50,-18
14,38,39,39,-128,2,-23,11
-5,21,-11,-7,-128,-32,-31,10
-3,-16,38,25,88,35,-8,-8
1,-24,12,-49,-4,-43,11,18
-32,-23,-10,18,100,32,8,-52
-3,-25,21,42,0,14,9,-48
44,9,-82,-1,-7,23,23,102
3,2,4,-32,-115,-22,-43,3
-15,30,-22,1,60,10,-5,-31
-8,-19,-17,-20,-21,-7,-8,21
-7,-28,-22,-8,42,-8,-4,-7
10,19,-106,-14,-128,-12,60,27
-25,-16,93,-11,-123,-7,-3,-53
27,77,-4,33,127,58,-22,-8
17,-58,-41,-84,-128,-104,-6,57
16,8,5,127,127,59,14,-42
-8,31,47,-33,11,-7,1,-2
-11,-21,-45,-40,21,15,-28,14
-46,-49,-14,-49,-85,-51,-42,-62
-36,27,-50,-8,-22,-1,-3,-106
43,44,96,79,127,32,74,55
11,-38,3,-15,0,-6,5,46
22,20,-13,3,-26,-31,-34,33
3,5,-44,-35,-74,-44,-26,47
-18,-47,-49,-17,8,15,7,-17
-28,-2,127,-33,-65,-42,-8,-15
-12,49,-41,-11,-89,-31,-17,-55
13,-10,0,64,-5,30,32,-49
-19,-29,-21,5,22,-5,43,72
33,-8,20,-29,26,24,-22,22
-4,-1,-41,-46,25,-34,-63,21
9,-1,-18,12,-128,-8,1,0
-18,-13,-12,10,8,14,1,12
-24,-20,0,-20,-34,35,14,-41
-18,11,2,-27,-32,-76,-14,-33
-18,0,-8,-24,-128,14,16,-128
67,-16,-48,-11,-1,-10,2,127
-4,-31,50,-23,-7,16,3,-24
-12,-2,-39,4,31,5,-22,-47
-30,34,63,-19,-128,-61,-52,-7
3,-2,1,35,55,31,12,-20
14,-22,-90,48,36,29,42,47
-8,33,41,-13,36,0,-10,-88
31,-4,20,10,28,32,40,8
-1,8,6,-28,-101,-47,-78,26
-23,-8,-70,-102,-128,5,-13,-43
-3,-13,-12,22,127,1,7,96
4,-8,23,22,-18,-15,27,-6
13,-6,-33,97,127,66,33,3
-28,-11,-14,23,-39,4,-4,-33
27,84,52,-56,5,20,10,44
-15,-10,-27,38,-67,-7,1,-14
-29,-62,-9,-50,31,32,24,-39
33,1,-23,-2,23,-27,-50,46
23,8,-19,28,52,22,9,40
-40,13,-5,-11,14,7,-6,-86
-33,-38,21,10,27,-27,30,-18
16,-16,14,-10,4,43,-33,34
7,37,5,-48,104,23,-4,39
-3,-19,-70,-6,-128,-20,64,15
9,-18,81,56,16,-11,-68,-15
-6,-1,12,-15,1,-24,26,-18
-12,-7,-29,10,67,16,-21,35
4,5,22,-13,22,-18,22,40
21,17,13,2,-44,66,20,-11
-7,-8,-71,-26,-30,12,-7,-8
-19,-1,-39,-48,-28,-52,-17,-43
2,30,61,46,-77,-9,37,-7
23,1,7,78,127,58,-10,34
-1,-15,-39,-33,-2,6,32,55
-15,-13,-61,-15,2,-32,-26,-60
-3,-6,-78,-59,-89,-23,-60,-6
-10,23,-20,-6,97,-38,9,22
8,21,113,83,27,6,44,21
8,-22,37,43,120,74,4,3
-41,-46,-35,-101,-128,-74,-58,-75
-12,-51,-71,83,127,51,41,-24
59,73,105,42,-16,21,21,-36
28,2,-55,-83,-27,-67,-29,118
-41,-9,17,30,91,23,-25,-28
-21,-9,-2,-27,45,20,26,-16
-14,2,-26,-128,-128,-78,-13,-60
8,10,-32,117,127,86,-2,23
10,4,103,23,-128,-75,-54,29
24,-9,-38,33,3,63,21,3
-7,-8,-42,-35,15,-38,17,20
-11,15,21,2,-29,15,-1,6
-27,-17,31,3,103,-9,-20,-13
-41,-15,-128,-44,-44,-45,36,-74
5,32,127,8,0,23,37,-34
35,10,5,1,-128,-9,-32,32
18,19,-4,23,-29,1,-22,4
-16,-14,-85,-2,7,-12,3,28
-30,-57,23,-5,-35,6,-18,-64
0,-13,-9,-43,-20,-14,14,-16
11,35,-11,-30,33,-13,-5,18
21,47,39,68,-3,38,22,65
-16,-37,-61,6,-10,-4,-2,-22
-10,-15,73,-9,-25,22,-16,48
-2,15,25,12,116,9,26,-56
-9,-2,-31,1,60,-10,1,11
-15,0,81,-24,-86,-13,-30,-15
10,-45,-75,-82,-19,-83,-32,41
24,36,17,94,-86,62,66,30
-8,36,95,20,-16,33,0,-5
-24,-3,15,0,-66,5,14,-59
-26,-23,-38,-32,-50,-17,9,-28
-8,-26,-20,-17,-21,-18,-17,-13
8,-4,-10,-16,5,6,-29,-15
8,27,-72,-68,65,11,35,58
-23,-40,69,-1,-128,0,-9,-49
11,-35,-77,-30,-128,-66,1,88
18,75,127,76,-6,25,17,-10
-42,-16,-35,38,127,22,-37,-22
-14,-63,-110,-57,-9,32,-1,-78
28,-7,12,-23,55,-60,-11,17
57,34,-45,-30,-128,-9,35,127
-40,29,7,23,56,-16,-2,-29
-24,-7,0,-9,-13,20,12,-30
-5,-13,12,-5,-9,-2,-30,-59
14,-1,-19,-39,16,-9,7,24
-17,-18,-66,13,60,33,36,-58
3,-21,19,35,-41,0,-42,63
2,21,-38,-8,37,-14,-14,5
-7,23,76,-41,-69,-21,-1,-24
7,4,-1,39,127,93,28,-31
12,-16,-52,30,127,-47,17,70
-16,-5,39,53,-29,11,1,-27
-11,1,35,5,-5,4,4,-19
-20,-17,2,-24,-15,-8,-10,-8
11,15,-52,-65,-12,-39,-33,-76
12,-32,-5,-4,-55,-21,-11,71
2,-5,-35,-21,-4,-3,18,38
8,2,-19,64,-12,27,25,26
-21,-7,-72,17,69,30,25,-18
-10,-6,63,-83,-52,-10,-43,-47
13,11,34,84,127,12,4,-26
18,-2,-34,27,-1,2,10,53
-24,-24,-14,-34,-20,-3,-2,-48
-11,-22,51,-30,67,-6,-71,-18
-9,38,16,-26,-128,-28,-38,-25
31,44,26,57,33,13,76,29
11,-9,-19,13,127,17,-12,4
-7,6,46,48,127,28,20,-15
14,-2,-44,3,7,9,25,73
-54,-62,4,-63,28,3,-44,-51
28,42,-19,-12,-128,8,28,5
13,24,-2,28,84,13,56,38
-30,-4,-40,-27,-19,11,-17,-73
22,-43,14,-25,-55,-31,-48,52
30,-20,23,38,-112,-16,68,73
-11,18,-75,-4,28,-10,-32,-19
-2,-11,0,-14,-10,-27,-63,-18
-37,-29,127,-21,-39,20,5,-31
-21,16,-45,7,46,11,-5,-25
-8,40,-16,6,-72,1,16,-49
6,-5,14,-65,20,-18,21,0
-4,-97,-26,9,-128,-62,-25,49
47,39,-26,117,127,62,18,75
13,50,8,-10,-10,0,-18,-14
-29,-9,-49,-42,-33,-23,-3,-20
5,5,21,-28,-29,-3,9,30
-12,-26,-11,-6,4,50,-24,-9
-54,-37,-15,-51,74,-26,5,-86
-34,-49,-128,-16,-128,-30,23,-45
62,40,127,105,127,16,-8,46
64,53,12,55,108,1,3,127
-28,-44,-87,-31,-3,9,-34,-25
-17,3,-62,-38,-21,-21,9,-35
-5,-23,-18,-44,30,-5,-20,-34
-26,-20,-26,-24,-128,-10,12,4
1,-17,-41,8,75,-4,32,6
-8,5,12,-9,118,50,-8,-37
-23,14,93,-6,-128,-49,-11,-28
62,25,20,101,127,50,22,85
-7,-29,-28,-33,5,-32,-19,-25
-15,8,-7,-17,5,36,22,-24
-50,-3,-16,-34,-28,-33,-26,-35
-10,3,-11,-57,12,54,44,-5
46,-51,87,63,-1,-27,0,85
50,37,70,55,116,11,-23,51
-23,-9,-28,6,19,-15,5,-22
17,14,-13,-4,36,37,19,45
-16,-9,-21,-24,11,-12,-14,-12
-25,-15,-25,-39,-53,-21,-13,-4
-39,-43,-27,-128,-52,-43,-89,-128
12,24,25,127,-128,52,102,1
96,52,55,19,64,27,54,127
-15,-70,-61,-33,-5,-18,-54,-3
-27,44,19,-24,-38,-18,-17,-50
-26,-19,11,-28,-53,-29,-4,-28
-23,-16,4,-19,120,16,6,-10
30,-11,-128,-2,-128,-21,-7,35
6,18,127,6,24,0,-38,-36
10,5,-32,58,102,15,-2,-17
-39,-28,-73,-25,44,-9,61,4
-5,-18,-48,-43,36,-28,-52,8
14,0,0,42,-43,-37,7,1
1,4,-37,-128,-53,-39,12,42
-16,-24,23,127,120,87,7,-71
25,49,-81,-7,-128,-77,-21,-1
38,30,41,39,103,42,38,-17
-23,-26,29,-44,-13,14,6,22
-45,-49,-95,-127,127,-19,-92,-35
-1,-1,-26,-20,-128,-56,14,-1
9,3,33,127,127,87,33,38
61,48,52,-59,-32,-6,54,127
6,1,15,-68,-42,11,-47,29
-35,-5,31,-5,-13,-31,-59,-66
-21,-23,-62,-33,79,-50,8,-41
-29,-58,-99,-121,-128,-84,24,-30
24,53,114,72,127,127,15,62
-27,5,-34,-17,-128,-70,15,-78
18,17,112,42,64,15,-12,-37
20,-27,-65,-39,-43,-4,-94,47
2,7,-18,-12,17,30,18,18
-45,-52,-128,-78,43,-75,6,-32
-19,-5,85,-6,-39,24,49,-40
49,68,82,95,127,48,18,64
11,-11,-92,27,121,29,-17,29
-17,3,84,9,-4,-17,-29,-47
8,-11,-60,-11,-44,6,23,2
-16,-43,-10,-37,-67,45,-12,-60
-53,8,29,-64,-128,-96,-10,-11
-16,-25,-55,85,127,66,-33,-38
46,-6,-81,-17,-11,-33,-9,1
30,61,32,-2,33,14,5,73
-23,-31,6,35,23,55,51,-35
1,-16,-69,-57,29,-41,-50,48
-80,-70,-1,-123,-128,-111,-74,-62
42,-20,-8,127,127,97,105,68
74,120,37,86,115,40,39,1
-25,-11,-41,-7,127,12,-31,-53
-35,-41,-38,-128,-112,-21,-36,-58
14,-10,-34,127,127,65,73,56
-44,-22,127,26,46,-22,-35,-52
14,-37,23,15,-128,-10,-16,-29
24,58,-23,-128,8,-53,-29,-58
0,-7,-10,127,127,102,20,60
12,-27,-46,-79,-128,-70,53,93
-28,-12,38,80,127,66,49,-60
-48,-27,-59,-128,25,-38,-45,-41
22,11,60,69,-128,46,26,67
28,27,19,45,75,29,-21,28
-1,40,-59,-77,-84,-89,-103,-21
-20,12,-45,-21,-31,-20,7,-46
-21,-25,10,-30,-57,14,38,-38
-25,-33,7,-21,-24,-18,15,-105
12,5,-87,-23,-35,-37,-49,76
52,25,86,-7,-50,-24,14,127
-14,-12,-28,18,50,65,12,-2
-20,-27,-16,-13,-34,62,109,-10
34,44,-26,-38,31,-52,-38,-106
34,31,29,44,78,-16,-38,120
-9,-34,-45,-11,-98,-14,25,-29
-33,-66,34,13,42,27,-31,-32
24,35,-37,-55,-50,-98,-128,34
-13,21,44,46,125,49,12,-123
10,10,-18,-77,8,-59,-12,127
7,-16,68,127,127,113,71,38
-12,19,27,3,-27,-24,-6,-24
-18,17,127,-125,-99,-1,54,-2
-19,-25,-67,112,-128,-40,5,-39
34,42,-6,73,127,50,3,76
34,-16,-72,79,127,100,9,15
32,25,-16,54,7,-5,-20,66
-2,23,99,-14,4,-12,-21,-6
-40,-67,-23,-54,85,3,-23,-93
-51,-66,-128,-128,-128,-128,-12,-49
12,27,18,127,127,101,66,59
19,28,42,-23,-85,-3,-41,-5
-21,-11,-42,-47,0,-50,-41,-53
-33,-19,2,-44,-40,-3,-7,-30
-57,-79,-97,-89,-53,-63,20,-56
73,20,17,55,26,13,17,98
0,-28,40,-10,2,-19,18,27
-27,-15,24,31,50,34,-4,42
-23,86,35,12,-49,-51,3,-37
85,40,82,4,8,-21,30,31
-2,-51,-124,-26,-35,2,-23,2
-60,-38,96,-3,-20,-8,-31,-65
-118,-117,-89,-61,127,41,105,-128
69,79,127,11,-128,-83,-70,71
127,127,110,74,127,96,-97,127
-12,-10,-74,37,-26,-46,43,19
-30,-23,-65,-55,-13,-26,-1,-11
-36,-36,-43,-33,-10,-6,-30,-63
-43,-27,5,-92,-128,-46,-31,-58
-46,-44,38,-24,-115,-11,48,-95
17,26,27,94,127,3,-10,60
47,38,23,127,127,49,-11,31
22,35,58,17,-127,-4,9,48
-22,-18,-10,-34,-22,2,29,5
-54,-45,-19,-25,79,42,-6,-49
-18,-54,-126,-49,34,-36,-13,-49
1,-10,113,-1,-128,-21,-21,-55
44,71,83,35,28,-16,-11,88
6,20,-38,3,-18,26,0,46
-28,-46,-30,-3,-20,-22,5,-16
46,-21,6,7,29,35,54,27
-9,20,-82,0,-15,-84,-101,-7
18,52,81,-10,37,48,60,-11
-16,-27,97,51,3,-21,7,0
4,0,-30,6,-34,-2,-59,-26
7,-9,-73,-9,35,-11,53,38
-4,0,19,4,100,3,15,-6
-24,-17,-1,-68,-47,-5,-11,-51
32,7,-1,66,2,2,-18,64
-18,-33,-26,-111,-95,-60,-26,-10
-57,-32,-73,-18,54,37,41,-49
37,44,75,103,-128,66,125,-21
37,11,108,39,126,-21,-105,5
17,-37,-72,-55,-8,-17,-15,91
-36,10,9,-63,-20,-18,-27,-8
20,22,-50,-70,-110,-52,22,-11
-14,9,0,13,-64,16,12,-38
-19,-11,89,32,23,1,-24,-23
-65,-33,-30,-29,-53,3,-30,-128
26,-3,-31,-25,-128,-23,46,-24
56,-24,-35,10,17,-57,-76,127
-30,-2,-42,-7,-23,41,17,-44
9,-23,-3,-26,-26,-60,-12,-73
18,9,32,1,-18,-45,-41,42
-39,-8,-60,11,10,-16,-2,-42
-8,9,-9,-16,-11,24,46,-25
-21,34,127,38,16,29,25,-27
-35,-73,-96,-71,-20,-41,-49,4
79,23,-39,52,-128,-6,51,93
14,50,15,33,-51,16,-1,-25
-12,-11,24,-33,9,-31,-46,40
-7,-23,-55,0,62,2,19,-16
-26,-29,1,-33,22,5,-34,-21
-16,-6,14,14,-38,-30,19,-23
11,4,-22,0,-56,5,3,21
0,20,-45,0,-42,15,-21,-18
3,-13,32,-2,2,-15,3,1
-17,-35,-60,-4,127,26,-12,4
-28,-31,20,-65,-30,-17,-42,-41
10,25,-9,62,36,-12,70,-29
-2,35,105,91,96,28,12,65
-14,-45,14,-37,-17,-11,-19,28
-50,-5,-43,-49,-3,-20,-37,-72
12,25,47,-1,-2,-27,-6,5
124,30,127,23,47,3,36,49
2,2,-105,-14,-23,58,-10,54
-72,-55,-35,-37,-1,-17,-14,-85
-46,-29,-56,-34,96,-10,-31,-78
77,69,38,78,62,9,-21,100
6,28,67,78,-45,55,54,-37
-5,-10,-59,-13,7,-4,1,25
-12,-43,-64,-83,-128,-86,4,43
-16,-14,38,-15,3,1,10,-27
-27,-22,-41,29,20,-11,-5,-45
-15,-12,-6,-50,-6,9,8,-9
12,-4,11,4,-43,1,-12,19
-24,4,-63,-3,-60,-3,2,-53
-8,34,38,6,-8,11,7,-83
7,8,47,-35,9,-27,0,23
-27,-29,-18,24,-39,29,-9,-10
-15,-6,-17,-42,46,-14,-53,-88
54,-61,-107,-72,-112,-52,-74,127
33,-15,-10,-28,-67,-15,81,30
-3,127,127,127,90,27,-3,-48
-7,10,-75,-53,-128,-27,-8,-21
-25,-64,-60,-41,8,-2,-25,59
-68,-64,-41,-67,25,-27,-48,-128
80,78,-20,-39,-14,6,90,127
33,50,42,118,68,98,28,59
-10,-6,-19,-61,-36,-12,-6,-44
-31,-58,18,-24,-34,-9,-46,-12
-33,36,18,0,40,-61,-65,-73
47,18,41,-9,-23,-11,74,-11
-45,-68,-108,-28,27,2,57,6
-37,-31,83,8,-90,-2,-42,-36
96,112,35,19,25,19,-46,117
16,20,-15,-29,41,-51,-34,44
-5,-17,11,24,30,4,36,-15
-25,-14,2,-1,20,0,12,-15
-78,-24,-120,-71,104,-11,-50,-114
19,-14,-28,43,-128,5,57,14
38,3,118,40,-41,6,31,49
-21,-22,127,28,-38,60,9,1
5,37,-69,2,26,-34,-19,-3
-28,-35,42,-31,-14,-16,-21,-35
-41,-11,-14,-43,38,-56,-13,-40
-27,11,-22,-63,-128,-52,-61,-101
46,20,18,-39,127,-17,-14,49
8,2,-21,123,81,74,32,45
-17,-26,-62,-38,5,-62,45,28
-8,-5,-12,18,-43,-23,15,-85
43,-18,-80,-11,-7,36,-17,127
-4,-31,-7,-21,-19,-23,-69,13
23,74,55,12,127,14,1,33
-16,37,2,10,-69,-30,15,-69
-6,-55,-75,-29,-43,-10,22,-19
-32,-37,-66,-9,-10,-47,-3,-4
-23,-17,-37,-30,-40,-32,-32,-14
-7,-15,28,24,8,2,-36,-27
-8,-5,101,-15,-2,-11,-9,-82
5,38,-10,71,127,77,53,-7
14,-1,-25,10,-56,-21,28,20
51,28,-9,13,101,-32,-6,127
-29,-31,-29,-31,-128,-41,-72,-57
23,19,24,16,127,10,-2,17
-11,-2,23,-80,-16,17,3,26
-3,5,-18,57,48,-3,14,-13
-32,-16,-112,-128,127,-21,-20,-49
14,2,5,127,30,114,81,-2
9,-26,14,-13,-71,-8,-8,42
-3,5,-18,-40,-36,-2,6,-40
-9,4,46,-42,-6,-43,-22,38
-21,-5,-36,-43,-44,-19,-18,-37
-4,7,-27,-27,-51,-48,-23,24
3,-24,9,61,33,40,24,7
9,35,19,26,17,29,39,-34
30,33,-10,7,9,10,18,43
-31,-14,-34,-24,-29,13,-9,4
-3,-9,41,10,10,-13,-58,-41
32,38,40,5,-2,-25,32,14
-36,-31,-21,-9,25,32,-22,-14
-43,-30,-22,-13,-86,-50,-77,-65
30,0,-14,21,15,33,0,-2
40,52,38,3,63,-1,74,-5
21,-8,-29,-3,5,-20,5,108
-33,-26,26,-77,-67,-8,-38,-39
5,29,-22,68,127,55,20,-26
-6,-14,45,11,-128,-4,-8,-60
-3,-19,28,40,99,14,26,97
-2,4,-91,-75,57,-40,-39,-30
-42,-48,-109,-128,127,-48,-83,-61
-38,2,54,127,-128,60,74,-62
72,39,48,-3,-9,7,25,25
36,31,-83,-50,89,5,-7,102
-29,-35,29,-29,5,2,-3,-8
-33,-79,-30,-17,-43,-23,-30,-44
-28,7,-80,-101,-88,21,-3,-60
16,29,17,51,127,23,51,57
0,-28,-8,54,-59,-51,-51,11
-6,2,35,16,-27,45,0,-15
-24,-7,58,-29,-55,-45,-27,-44
35,-8,11,-23,-40,17,24,29
-22,14,-8,-6,-51,-35,16,4
4,-2,-8,20,80,-2,-34,-52
6,-35,-9,-9,-37,-19,-40,28
-53,-7,-10,-8,-26,38,-5,-61
-12,-2,-15,23,44,-14,19,-85
75,31,39,1,-12,10,27,127
-1,-9,46,5,-2,-30,-16,-20
1,28,-3,5,-22,11,-8,-40
-48,-21,-31,-61,127,-4,-13,-57
-5,-45,29,-82,-128,-86,10,34
33,42,-7,127,127,119,57,1
18,1,-12,-26,-60,-28,-29,-26
-7,24,-2,-34,-12,26,-20,-12
-30,1,-24,-24,41,-1,25,-39
-16,-56,-44,-128,-3,-83,-81,-49
68,13,54,127,-128,9,37,126
-4,10,4,52,63,7,5,40
-23,15,-31,-25,-10,33,-3,-17
-35,4,1,-90,66,-79,-47,-58
-7,2,-17,-32,-128,-1,26,-20
65,64,127,127,127,77,48,63
-8,-21,-83,-24,-22,-29,-26,46
-31,-15,-107,-48,-20,-16,-29,-44
-32,-33,40,-48,-20,-25,11,-78
-9,23,-37,-19,15,-40,2,-10
64,-34,10,12,-51,10,49,127
29,54,73,21,-32,14,-10,4
-4,36,8,22,18,48,-27,-38
-31,-10,-30,6,-2,-56,13,-48
13,4,-23,-39,-7,-29,-47,42
-8,5,-4,43,75,15,3,-4
13,4,-23,-39,-7,-29,-47,42
-8,5,-4,43,75,15,3,-4
13,8,25,11,2,-32,-31,-7
-42,-82,-51,-41,52,66,-1,-65
