Channel_1,Channel_2,Channel_3,Channel_4,Channel_5,Channel_6,Channel_7,Channel_8
-1,-4,-8,0,-2,1,2,1
-22,-5,12,-60,33,15,-12,-70
8,-10,62,-4,24,4,3,24
8,21,50,90,127,37,12,5
-11,-17,-128,-99,-128,-17,21,-19
10,16,84,77,10,-4,-22,10
0,2,76,35,86,15,-10,29
-7,-10,-52,-35,6,-8,-27,-43
-12,-2,-56,-49,-21,1,31,2
14,13,-15,45,8,-28,-70,10
-5,-5,12,16,-18,-8,-17,-15
-16,-1,59,-48,1,7,18,-55
0,-10,-39,-38,32,4,19,72
-16,-35,-128,-7,11,-6,-17,-67
21,31,-67,-3,9,-16,-85,-12
-11,-28,31,9,-21,-18,-14,-25
8,-16,-87,-8,10,21,8,29
-3,39,127,74,-57,-28,-13,-4
-6,-10,-32,-43,127,22,33,-10
0,-2,-46,1,-104,0,30,10
-2,-6,48,98,89,17,2,5
3,5,-80,-123,-4,-10,-14,0
-4,-8,-34,-28,-6,-12,-21,-12
-16,-5,-1,-4,-17,-10,-29,-62
15,23,28,-40,-25,-19,-23,22
3,-6,-15,-37,-6,-1,-10,3
-15,-4,5,65,10,-6,-6,-44
-4,-2,82,-128,-28,2,17,-26
20,12,-36,28,63,10,-9,56
-4,13,-16,-12,15,-6,-23,-5
-20,-16,-11,26,37,17,21,-49
5,0,-67,-98,-125,-34,-10,-7
19,28,57,125,127,67,29,51
-4,-10,6,23,53,11,11,33
2,8,53,19,9,4,-5,10
-1,12,-56,-22,-2,-1,4,-11
-5,-23,6,-44,-10,-4,-1,-22
-7,-4,42,46,-12,-12,-9,-8
-5,-2,12,-18,28,19,4,-10
-4,-6,-47,-15,15,-14,42,-17
4,9,5,-15,-54,-47,-36,-5
13,-1,-84,5,111,32,15,32
-11,18,127,-70,10,-16,-21,-24
1,-5,-49,37,-22,19,18,13
-4,-8,-56,55,-18,10,33,-11
1,-5,-8,31,18,-12,-21,7
4,29,127,-13,44,-1,-19,-5
-2,-8,-64,-46,-94,-21,-2,2
3,11,-37,67,52,37,44,-22
7,6,-6,-53,-9,-5,0,-2
-1,-1,-6,44,30,-22,-52,-4
-1,1,-7,-36,25,12,11,5
-7,-7,0,95,32,6,-13,-11
-13,-9,-43,-31,-4,4,22,-12
16,4,-68,-42,-8,-27,-64,37
3,-1,65,-1,76,13,9,2
-9,-7,-41,-6,-25,-8,-1,-11
-12,11,60,17,44,10,4,-18
-4,-18,-61,-8,-32,-1,25,-19
-24,-21,47,8,-79,2,-1,-47
3,12,-28,22,-5,12,28,34
7,-4,-50,-2,21,-10,-8,-20
-3,3,4,-21,-1,-15,-41,24
17,24,127,41,-66,-8,-11,13
-3,-5,-35,19,11,4,12,-12
-24,-7,16,-58,22,13,1,-65
21,-1,-29,-27,-39,-62,-32,39
12,9,13,69,-6,-7,12,58
4,20,-39,-50,-21,1,3,1
-10,-17,33,105,15,6,3,-19
-1,-2,116,-7,101,71,6,12
-16,-8,-59,2,23,20,-50,-57
3,0,42,-10,-21,-44,33,8
-1,-3,-29,127,69,-7,-22,-5
6,1,-30,-128,-20,-17,0,0
-1,0,61,62,-80,-1,-1,0
-8,-3,-25,32,20,13,17,22
-20,-11,-10,24,7,6,-22,-47
-8,-13,-48,14,-17,3,25,-13
23,23,-26,79,-2,-18,-45,38
17,15,42,-33,-8,4,-5,-13
6,2,-41,2,-12,0,12,17
3,-17,-20,16,127,47,24,15
-2,5,-1,-59,32,8,5,5
-11,-9,10,31,-61,-17,18,-32
-9,0,-18,-1,-14,-15,-4,-20
7,4,96,56,11,18,-37,37
2,3,-15,-31,9,8,8,12
-14,-14,-27,-128,-22,-9,6,-16
4,0,-34,27,22,35,5,-12
-13,-4,15,8,32,-22,12,-24
4,-14,-70,-29,-32,-30,-18,36
-6,2,109,39,-3,-13,-6,12
0,8,-12,-28,-79,7,14,3
-7,-19,-1,48,-11,-11,-16,-11
-7,-5,-42,-55,25,14,5,-16
5,3,-63,48,10,-14,13,10
1,-17,-1,-11,58,12,-43,-18
3,0,-50,1,-128,-52,3,-2
2,-4,54,28,72,36,8,-3
-8,13,67,-71,24,18,21,-12
4,-3,-13,-5,-29,-12,-11,12
3,1,-12,50,-1,-26,-15,-7
-9,-8,-26,-128,-2,-26,-15,-9
-8,-8,3,28,-33,10,32,-8
2,-3,-96,17,21,44,11,-2
10,5,62,-49,52,-17,-28,38
1,8,35,9,-10,-16,-18,-3
-12,-7,7,24,18,21,20,-1
-3,-15,-62,-87,2,-44,-26,-5
-9,-12,12,70,-128,-8,34,-17
1,1,-6,81,99,24,-9,8
11,2,-48,-121,8,3,-1,5
-7,-14,-63,-60,-21,-10,-8,-14
-10,-2,101,66,5,15,18,-16
15,23,67,-84,-1,-13,10,18
-13,-28,-38,-62,-61,-31,3,5
1,12,15,-8,17,8,-15,-12
4,-7,-26,28,-70,13,-13,8
0,8,-58,55,20,-21,10,26
-4,-6,87,7,33,4,-8,-4
0,2,-39,24,-54,4,6,3
-8,-2,91,32,-19,8,-15,-10
-9,-9,5,-78,24,-9,-12,-24
4,-3,-8,30,-1,4,22,17
-6,-2,-13,80,5,15,-5,1
2,-6,-61,27,12,-10,4,0
-1,1,-10,-85,-59,-24,-11,-7
1,0,-34,40,40,17,1,-16
-3,0,31,11,49,21,17,5
-15,-13,-15,-12,33,-5,-6,-12
9,15,-46,16,48,28,12,26
9,-1,-73,35,52,39,15,7
-3,9,94,-47,24,-16,-7,3
1,-4,48,-17,2,-11,-13,2
-11,-27,-60,-58,12,7,4,-11
0,-5,-19,40,-59,-25,9,4
9,17,27,5,37,16,6,13
-6,2,-1,52,9,-3,-16,-29
-10,-16,-29,-81,-9,23,44,15
1,-4,-28,-25,-39,-27,-25,-13
25,41,61,13,-10,0,-40,46
-6,-7,20,24,-14,-16,7,-2
-2,-11,-5,-55,0,-7,7,1
-3,0,-52,88,-14,-9,-7,-13
-7,4,26,-34,23,4,5,2
-22,-18,-47,-30,-73,-19,-44,-47
-6,-6,31,19,79,11,0,-26
6,5,-30,10,-30,45,24,15
1,-1,87,-45,26,-25,4,-5
6,5,10,67,-21,9,23,13
-5,-10,9,-128,6,-16,-23,12
-2,1,-16,6,-68,-26,-5,-2
-5,1,25,69,82,18,2,-12
-8,-9,-42,17,43,4,22,-2
-22,-18,-111,-39,-97,-11,25,-59
21,9,49,25,14,4,-9,34
-6,-5,41,-16,22,-7,-23,1
0,-9,-37,-71,33,8,1,5
-5,-6,-29,10,-94,-7,14,-22
-4,3,-26,106,55,4,-44,11
-5,-10,-7,-69,28,-1,-17,-13
0,-3,-23,66,-76,-9,5,-35
-5,-6,13,-99,-35,-4,2,-12
-15,-19,-66,22,42,20,14,-21
18,10,41,-49,-6,0,-19,33
13,2,-58,19,16,-23,-25,12
-12,-5,-20,-89,-52,-41,0,16
-7,-5,-38,39,107,61,30,-17
-9,-5,53,-22,-45,-24,6,-20
0,-9,-10,9,127,15,-15,23
-3,11,-11,6,-128,-15,0,-2
-8,-6,31,-36,-110,-3,8,-14
-6,-9,-7,14,15,16,-1,1
-2,-16,-80,-58,26,-3,32,2
16,27,68,116,-29,-3,15,40
-2,-11,-16,-25,1,-5,-10,-14
-4,-21,-85,14,28,-6,-19,7
-8,13,93,-40,-2,-8,-5,-34
-6,9,-95,3,-8,22,25,11
-11,-16,108,9,-39,-44,-54,-4
-8,-18,-29,-1,-71,-22,18,5
13,17,8,-11,-37,19,15,-6
10,1,-31,55,80,14,-15,12
-8,0,-10,-39,8,-4,2,-9
-10,-7,-43,-50,14,-6,-11,6
-3,0,11,40,-121,-15,-4,-38
-7,-12,36,11,48,2,-28,-30
-1,-19,-128,-11,-79,-14,10,16
19,36,121,81,26,10,9,28
1,3,16,-38,13,2,10,14
-1,4,-30,39,17,-5,-22,-22
-16,-20,-32,-107,29,-6,-17,-101
-15,-1,16,0,-65,-30,-4,-38
-6,7,4,112,-98,7,41,19
-14,-3,-81,-52,71,22,6,-35
-8,-8,-46,16,-48,3,-13,-25
19,-14,51,-33,-10,-23,-33,36
-1,-8,-28,26,-29,-8,-8,14
-5,2,-9,-19,-9,-15,-25,-11
-6,2,22,-40,17,0,-3,3
-20,-10,19,-51,-102,-38,4,-48
5,-15,-45,127,-52,32,10,33
-7,43,127,9,125,9,-21,-38
8,1,1,4,7,8,15,6
3,2,-9,38,-60,-22,-27,4
-9,-8,-49,-77,59,2,-8,-9
0,-13,-43,-53,-13,-26,5,-1
-36,-19,5,30,13,15,57,-57
39,15,-11,-56,-67,-28,-72,5
38,11,-2,95,-63,-12,-18,90
0,-6,-1,-9,73,18,-16,20
-16,-16,-39,-4,-12,-13,13,-15
-3,0,16,107,64,21,12,-8
-4,-6,-25,-128,-44,-16,-10,-7
-7,-3,5,-49,40,-9,2,7
-10,9,-16,18,-128,-35,-7,-27
-1,10,34,75,127,81,66,16
17,10,-27,-15,-20,15,17,10
9,-15,-117,29,-50,2,-41,-18
-42,-7,127,-92,-64,-41,-29,-128
-14,-6,76,-68,-119,-32,31,-47
21,12,-46,127,127,64,11,38
2,1,9,32,59,24,26,14
7,2,-38,66,10,3,-12,9
-4,-1,-6,-128,-37,-15,-15,11
-5,6,-35,-64,-4,-13,1,0
-11,-2,67,-11,-108,-29,-34,-33
-19,-23,-46,22,59,-1,-13,-55
-15,-30,-5,3,-76,-18,0,-21
2,-3,23,35,-33,-14,1,-24
6,15,-48,-25,69,21,20,24
4,4,41,-25,-16,-17,11,70
-4,-2,5,34,-128,-10,-8,-24
5,-13,-71,6,27,-3,4,9
-26,-22,12,6,70,31,-9,-31
-20,-5,11,120,-54,3,61,-92
23,3,-106,-128,8,-6,-35,84
8,11,69,-39,-121,-64,-33,-13
5,1,56,95,60,12,-4,23
0,-2,-30,48,49,46,127,16
1,0,80,-7,36,8,-40,6
-5,-9,-39,-67,-12,-27,-38,-2
-10,9,-38,6,85,-15,-35,-15
-5,-4,26,-5,-67,-12,25,13
9,19,19,21,-35,26,40,-6
-3,-12,-59,-18,89,15,8,11
-12,-16,18,-10,-74,-29,-20,-7
15,30,92,71,14,27,32,49
3,-26,-90,-38,-69,8,6,55
-31,-17,-82,35,-30,-21,66,-57
11,20,11,26,-60,-30,-73,6
20,-15,3,-86,49,-17,-18,31
0,-13,-60,49,-75,16,16,6
-2,-5,48,15,38,3,16,0
-10,8,-67,28,-31,-2,3,-14
-8,11,104,-10,-6,0,4,-5
-20,-18,-59,-36,-72,-56,-19,-2
25,44,98,19,127,99,78,29
22,5,-44,50,117,45,38,45
0,0,2,-20,67,23,12,15
-12,-7,-10,-1,-48,7,38,-9
-21,-25,-80,16,33,-26,-34,2
-14,-25,23,-56,9,-26,-73,-27
2,-16,-62,-83,-128,-44,-20,11
-14,11,127,82,74,-1,20,-4
24,11,47,13,88,55,41,-5
24,26,26,83,124,19,-12,32
10,16,-39,-57,47,16,-12,14
-16,-19,51,40,39,-6,3,-57
-9,-29,-65,-128,-73,-57,-29,45
-15,-2,-16,16,68,40,42,-67
-23,-3,23,44,127,82,23,-56
14,11,-18,74,-18,-67,-109,13
17,4,34,-1,-13,-1,-40,18
-23,-28,-62,-62,-28,-18,-4,-10
-18,2,66,-16,-31,11,27,-48
11,-4,12,22,65,26,59,127
6,35,74,-10,58,-2,8,38
38,-7,-57,-18,-86,-44,-71,9
-5,-14,-18,39,35,8,-1,-31
-25,-13,-11,47,27,20,26,-48
1,-6,-104,-37,6,34,61,34
11,24,108,-15,-32,11,-84,6
-8,8,32,43,75,-74,-8,-31
-2,-2,-54,55,-58,-3,3,3
-3,-21,-1,-25,70,33,3,-15
-3,1,25,72,-108,-36,-7,-10
-2,6,-33,-17,127,88,6,5
-13,-15,-38,-48,-9,-7,-7,-20
-10,-5,11,2,-82,-23,-18,-29
9,-22,-15,14,-22,20,15,40
-15,-16,-64,77,79,-12,-16,6
7,41,101,-56,-128,-10,17,4
0,7,21,37,23,20,-2,-8
-5,-5,-62,6,127,30,4,-4
3,-12,50,4,16,-3,-1,1
-1,-17,-91,-19,-5,-5,-11,-2
-6,-9,68,-48,-43,-53,-26,22
-1,39,127,51,127,85,5,-47
-9,-7,85,-9,-57,-11,-2,-13
0,-23,-86,-39,-75,19,22,64
-10,-15,-32,12,-82,-24,-14,-17
19,52,127,48,127,55,7,10
-3,-24,-72,30,-17,2,19,52
25,24,11,-10,5,10,32,26
11,13,-18,0,19,9,-19,5
-12,-24,-65,-20,-17,7,70,-27
-1,10,24,-2,27,-41,-49,56
24,-18,-111,-20,-56,-19,-8,86
-30,-23,7,-68,-27,41,34,-64
-4,-6,-9,28,9,7,57,5
26,14,13,-79,18,6,-8,39
17,19,23,1,-21,-38,-31,36
-14,-17,-29,-42,77,8,-6,-18
-5,-22,-25,70,-88,-2,12,-3
-25,-6,35,45,127,50,38,-100
-32,-21,-13,67,43,12,-32,-5
21,4,5,-61,-1,-44,-53,-17
4,-25,-84,-33,-34,-22,2,46
1,18,22,-10,31,-5,-15,1
-3,-19,6,-26,-124,-49,-13,-20
11,0,27,-7,127,113,46,-4
-24,-9,-27,0,-78,-37,-7,-70
10,24,11,28,-53,-1,52,32
-18,-21,-25,2,-88,-37,-19,-19
1,-14,10,2,-49,-11,4,9
-13,16,-4,6,-56,5,-8,-19
11,-5,-128,44,-112,-7,26,12
3,-1,127,-61,25,-5,22,7
-7,15,-8,-15,24,8,-20,-4
-15,-36,-40,-52,-47,-52,-53,-28
-1,5,48,75,102,23,32,-1
5,21,-5,117,7,34,34,-28
2,-13,-22,-20,76,17,13,-1
16,-6,-19,-36,-41,-6,22,37
17,4,-39,-11,39,9,-30,52
-20,-6,50,3,10,-5,-22,-56
-13,-7,-99,-19,-13,-6,-15,-49
21,15,97,120,0,-9,19,34
3,-2,-31,-128,-72,13,104,17
4,8,-19,2,24,-25,-64,24
-1,-6,-15,24,-66,-13,-46,-28
-13,-14,-24,-21,16,4,-35,-10
-47,-16,9,2,-19,44,127,-79
48,24,27,38,-17,-37,-64,127
10,-3,21,-106,16,-14,-19,37
4,27,29,-61,-45,-22,-5,20
-15,12,9,110,51,-2,-19,-27
-13,-14,-29,-128,7,12,10,-57
0,5,-5,11,-45,22,39,-12
-10,-5,24,24,122,19,0,-51
7,-16,-11,69,-44,-15,-22,15
7,7,4,-47,96,47,16,30
1,-4,7,-40,-79,-56,-21,-10
-9,-7,77,127,127,41,13,-5
-1,-3,-38,-31,71,34,17,4
2,7,-12,-31,61,-13,-3,4
-6,-12,-4,-6,-28,-5,-14,-8
-15,-26,-22,-53,28,-23,-28,-18
-5,-3,-13,-47,-74,-11,6,-3
-6,6,23,19,56,94,5,-19
-4,-14,-81,61,93,-94,32,21
5,1,115,90,22,23,21,2
-3,-30,-87,-60,29,6,8,-18
2,13,-41,-16,-16,-9,-40,-6
-2,24,48,-11,-4,3,39,9
11,-28,-58,15,-25,-11,-52,77
5,1,-14,-8,-40,-37,-41,23
10,-1,-4,17,12,17,57,48
0,2,9,-1,0,5,19,4
19,3,-45,-5,-18,-11,19,67
3,-1,22,20,47,11,9,-1
-2,0,-14,-11,-28,6,12,3
-17,-1,41,17,1,-2,2,-11
-16,-6,-28,5,47,9,9,-63
10,1,125,29,63,21,21,8
0,-15,-66,-128,-24,-44,-48,-11
22,11,-16,33,-106,16,56,68
-13,3,-16,27,77,27,-17,-57
1,-10,-58,-116,-15,-34,-18,16
9,-25,-24,41,-128,-28,6,44
-13,-19,-54,11,-45,4,20,-21
8,21,37,23,46,-11,-37,0
-8,2,-3,42,-16,-25,-15,-17
-11,-6,-12,-91,127,25,-1,-2
-14,-21,-31,-128,-128,-65,-19,-16
20,17,12,127,-128,16,76,13
16,15,15,58,45,35,7,65
-3,-6,13,-1,-25,-10,4,-33
-12,-21,-38,-9,-22,-8,-14,12
-14,4,5,-10,-29,-14,2,-3
3,-2,-38,-77,-3,-24,-51,24
-16,-29,-53,-22,-88,-3,11,-44
-10,4,24,21,71,0,28,-23
24,12,15,-8,-22,-44,-120,35
38,18,13,82,-38,-14,40,127
-16,-13,-25,-91,-43,-2,-18,-51
-17,0,-6,19,27,12,-12,-33
-2,-8,-92,-17,-6,-23,6,-27
7,-11,70,-18,-78,18,17,38
-9,-14,-74,-128,-75,-28,-8,-15
17,19,47,46,53,42,37,62
-11,-12,-26,96,22,9,0,-35
3,-7,-42,-116,55,-4,-14,-29
-9,-32,-30,-11,-126,-21,-13,66
4,47,18,11,2,10,19,20
-19,-6,22,69,32,16,33,-48
10,-17,-104,-74,-35,-28,7,46
-4,-12,23,10,-63,-36,-41,-19
2,-4,10,51,-15,5,9,2
-7,2,-15,-74,23,-9,-13,-9
-9,-10,-7,-6,-87,-26,-4,-5
-7,-9,0,29,38,26,14,-20
-14,-6,-8,41,79,27,53,15
9,-6,-8,10,5,9,8,-31
24,15,26,-19,-65,-34,-50,11
-10,16,-27,-17,34,1,18,-18
4,-7,1,32,44,24,-4,23
-1,6,15,-36,41,-19,-17,-1
-12,-4,19,10,-3,52,-9,-32
-2,4,-26,15,-128,-78,10,-3
10,15,0,8,68,34,99,3
-6,-9,-9,16,2,-6,-59,-19
-1,-18,-33,-22,-15,-26,-50,-11
-20,-15,8,-47,0,3,-11,-54
-3,3,-33,0,28,14,-1,-17
25,3,-1,17,-30,-17,42,90
11,16,127,75,-10,25,-8,-13
-13,-2,15,47,51,-13,-12,-6
-1,0,-84,-102,47,-21,-35,33
-24,-6,54,-59,-7,19,81,-85
0,0,-46,48,-66,5,2,13
-7,-17,17,111,127,76,-12,-30
-3,5,-49,44,-3,-17,-11,0
-1,-17,38,-65,-11,-5,-7,20
-9,-8,-53,-35,1,-10,-11,-49
-2,-10,-32,-78,-46,-18,11,-3
-22,-24,-79,-17,-14,0,-6,20
-2,6,127,8,-99,-46,-75,-32
13,15,23,49,116,27,-10,39
0,16,-40,-2,9,-4,-10,9
-7,-4,23,9,-1,-14,-14,-10
9,8,-4,-28,-42,-30,3,-5
7,-12,-26,59,-11,39,48,28
-20,1,35,-69,-10,0,16,23
6,2,-11,-35,1,-14,-23,-21
8,-3,4,-9,51,14,7,-6
1,6,6,53,-39,-10,14,18
-3,-4,-7,-83,31,8,1,9
-5,-7,-9,-9,-91,-40,-26,-17
28,-2,-13,-37,-52,0,41,100
-4,6,14,24,-7,7,-1,-37
0,25,0,65,98,-20,-46,-15
-13,0,28,11,-60,25,10,-45
0,-17,-37,-39,58,-31,-13,-3
12,-5,3,1,-28,-3,-1,49
13,2,-55,105,127,77,21,59
-1,1,14,43,43,19,9,-24
10,27,29,-128,-35,-38,-52,-16
-14,-10,6,-24,127,-24,-35,-42
1,8,59,-1,-128,-57,24,3
8,18,28,127,127,111,36,3
-7,-11,-39,-33,17,-6,-8,-9
-9,-17,-41,-36,-30,-17,-24,15
-11,-8,51,3,47,-8,-27,-11
0,38,4,44,-9,22,5,-55
-2,-21,-46,-19,36,19,20,29
-8,-9,0,-2,-109,-40,-1,-26
19,0,9,32,-67,-8,6,71
15,-3,-27,20,3,-38,-95,21
-12,-10,3,-52,-13,-3,-5,-21
-14,-4,-35,-31,-23,-2,-4,-40
7,-3,-40,-112,-63,-9,8,30
0,-3,37,47,49,19,2,0
-11,-6,-40,-2,-52,-9,15,27
-23,-21,-30,-27,-100,-39,-28,-101
17,15,49,82,57,25,3,20
13,5,-22,14,59,19,-1,17
-14,-7,-12,24,-15,-18,-8,-34
-12,-9,-10,5,40,1,-32,-42
1,-9,-14,-50,-102,-24,-29,9
-4,17,36,72,6,23,17,-13
-7,-21,-49,-50,9,4,16,-26
7,-4,-10,-19,8,-34,-60,20
-10,-7,-1,-128,-128,-91,-43,-12
12,5,-32,127,-10,82,46,-13
-7,15,127,85,77,40,61,32
-14,-26,-38,-46,-36,-17,-1,-26
4,17,79,31,5,5,8,3
-8,4,55,22,31,2,15,-24
2,-19,-34,4,-4,-17,-37,39
-22,3,-37,-40,-6,1,103,-10
-1,-14,-22,-6,-31,-6,-29,1
35,15,13,81,-44,-10,-57,33
-7,-14,-39,-55,-7,-3,-1,8
-4,-5,12,12,15,2,-1,7
-13,-11,-43,-59,-45,-28,10,0
2,4,83,12,-5,29,25,-27
-10,-6,8,74,22,-15,-9,-14
-16,-10,-20,97,-119,6,12,-21
10,-4,-30,-87,-16,-21,-10,27
2,-1,-41,-4,111,10,-2,2
-6,6,72,30,10,24,17,-8
-9,-4,81,36,76,18,30,-5
21,11,-26,-52,39,-13,-24,39
17,25,26,19,26,17,10,14
-3,-20,-49,-62,62,-16,-30,-15
-17,-18,-3,49,-109,-37,6,-15
4,3,-33,-27,91,37,19,-12
-24,-11,19,11,8,-4,22,-26
-6,-18,-3,-42,-38,-12,25,50
24,3,1,22,-73,-52,-20,61
-8,1,-25,6,-81,-7,-30,-39
-3,-5,-28,79,127,70,88,-30
8,-7,14,74,-19,2,-21,58
11,4,7,-49,2,-6,-23,13
-13,-3,-13,-88,-20,-8,-15,-16
-16,0,-7,16,1,7,23,-15
9,1,1,-36,39,-2,-3,8
9,-6,7,29,-29,-20,-13,23
-4,-6,-35,-11,-55,-21,-9,3
-15,-16,-53,21,73,24,-7,-29
2,8,85,63,52,3,42,127
-15,-1,-3,1,24,23,48,-76
12,15,29,28,25,-16,-105,23
-7,-1,-21,-63,-23,0,25,17
38,-13,-2,41,33,0,25,127
4,28,26,-52,-5,4,6,-4
-33,-10,-77,19,24,-38,-56,-51
21,5,-94,-59,98,51,38,34
2,-6,124,-47,-21,-24,2,20
0,-5,29,4,-128,-48,7,31
20,7,-7,121,127,34,1,91
-37,-9,21,-5,56,13,-37,-128
-6,-9,-28,16,-128,-35,30,-6
-7,-8,-20,-63,-59,-26,-65,1
-3,-5,4,50,112,46,-16,-19
13,-10,-18,-65,-128,-62,-29,35
-8,3,-6,22,-27,-16,-18,12
1,-3,0,38,-10,9,-10,-18
1,-2,-13,9,87,17,4,10
-17,-18,-30,-33,-32,-7,-2,-4
6,24,76,-7,-126,-5,33,-22
-13,-10,1,-23,68,-2,-12,-10
-6,-35,-61,5,-36,-3,13,37
21,35,34,44,-65,-44,-14,31
12,1,5,39,-29,9,4,16
-6,2,-28,-128,23,-19,-44,11
-36,-32,3,-95,33,-28,-53,-99
-8,-19,1,77,-79,14,3,-28
8,21,16,-13,-38,-3,17,22
-6,24,-29,-31,60,15,6,-14
-14,-11,-55,39,-117,-34,21,-11
3,8,65,22,-45,-13,-29,0
19,0,-42,25,21,-6,-14,63
-7,-7,-16,4,82,11,-2,-7
-4,-16,5,42,-12,-21,-30,-18
-7,-6,-7,-89,15,20,19,-32
-12,-3,-21,2,-39,17,31,-8
18,8,-9,8,44,0,18,71
-12,-2,15,-33,-9,-17,-21,-71
-28,9,-21,-26,-21,-5,41,-3
9,-2,-1,-9,-6,-2,-5,11
24,-1,1,-8,28,-22,-23,44
-8,-9,-4,46,-27,-11,14,3
-7,0,5,14,62,44,17,-25
-5,-9,-16,-9,-26,-16,-18,-23
18,26,65,30,8,-21,-40,76
-22,-22,3,23,43,54,56,-82
15,14,39,-41,-45,-6,-21,22
-14,-30,-47,-4,-27,-37,-51,-10
-7,7,-35,-87,-47,-49,-2,-15
16,52,86,83,127,76,43,99
-5,-16,-26,30,96,3,-26,-15
-9,-12,-65,-76,14,-7,-6,-77
7,3,7,32,-16,-4,11,56
-18,-9,5,23,14,22,58,-40
-17,-1,5,-8,-92,-38,-48,0
10,-2,-84,-75,86,-7,-14,32
-5,-2,127,-8,74,18,11,-20
14,-5,-72,-86,-53,6,3,27
-7,-17,-13,81,-39,53,37,-11
-4,5,50,-55,112,3,13,-8
-6,4,37,-11,13,-7,-12,6
-4,6,-6,-27,43,-31,-6,17
-15,-19,-24,69,-117,12,20,-21
-8,-26,-33,-1,17,10,-11,-23
-15,-7,-10,-41,111,26,21,-51
17,4,23,31,-55,-10,-9,12
-4,-7,-76,51,127,20,3,0
-9,20,28,-6,-114,-19,-4,9
-9,-4,9,-2,104,38,30,-40
10,-6,-10,-26,-40,-38,-29,57
-25,-21,-16,-14,-15,1,-15,-7
3,-1,-5,-10,4,-3,38,-37
33,8,0,38,-17,9,12,77
6,5,30,97,-4,-10,-12,16
-19,3,-27,-83,41,17,15,-42
0,-6,3,27,-26,-29,-23,17
2,2,2,9,65,56,101,56
12,17,10,50,52,6,-26,41
-10,-11,-47,41,22,-2,-49,-30
-10,-12,85,8,-54,-9,1,-23
2,4,3,7,127,17,-4,2
8,16,17,7,-128,-10,26,20
-17,-17,-67,-54,38,-10,-24,-21
-36,-7,-4,-65,-123,-8,36,-71
26,9,41,71,109,31,-10,51
1,-22,-13,-128,-27,-30,-8,38
3,15,30,-63,-1,-6,25,5
-10,1,-21,-7,-24,-31,-55,-17
-9,-8,16,-72,-52,-6,-10,-65
11,-9,35,44,33,-4,29,22
-9,11,-6,112,127,103,55,8
5,1,-49,-35,29,-5,-9,-35
16,5,-21,-20,-36,-60,-105,8
8,-5,-22,7,6,1,2,-5
3,4,-55,-20,-10,12,19,36
-17,-20,48,-45,-41,-47,-28,-27
-20,11,-16,-28,-46,14,42,-25
19,14,14,46,74,70,119,44
24,9,4,56,-53,-35,-10,88
-18,-14,-7,-38,40,9,-43,-90
24,6,2,33,68,9,-14,100
0,6,15,-70,-53,5,8,-8
0,-23,-90,-11,-30,-12,-6,-2
-9,10,65,40,-15,2,-5,-21
-15,-20,-12,21,32,1,9,-11
12,8,24,3,-25,-16,-28,11
-6,8,28,-36,-14,-2,-6,-11
-5,16,-94,0,-23,0,-18,-3
1,0,91,-38,53,3,10,-11
-11,-19,-12,3,26,-8,-17,-12
-9,-14,-59,-11,21,-47,-13,4
11,4,66,127,127,126,51,-33
8,25,85,-88,52,-9,-22,-14
-4,-8,-22,-99,9,0,-7,9
-6,-13,-57,-2,-16,-16,-28,-8
-6,3,14,-22,15,-4,-31,-32
-25,-3,-7,-68,-76,-26,-5,-118
40,-2,-52,26,10,-53,-87,127
4,10,123,105,-81,86,80,-128
7,0,-1,-92,3,-36,-56,-4
-15,-8,-13,26,-83,-15,-8,-42
-10,-3,11,-5,-14,-5,6,5
-12,-18,-60,-37,-27,12,21,13
22,11,27,51,23,27,31,36
2,-11,-18,67,40,-6,-15,4
0,7,2,-128,10,-26,-10,-25
-8,15,36,-2,-70,-16,10,14
-2,-6,-9,55,19,23,-4,-25
12,-8,-12,4,54,-7,-44,36
-8,9,-4,-24,104,7,-32,-53
11,-1,29,-3,-128,-33,8,11
-2,1,-41,19,16,7,4,15
-17,-20,-32,-63,-11,-5,-7,-9
4,-2,0,-20,30,-2,4,-4
1,-12,10,27,-55,27,-9,2
-12,-12,-40,124,85,37,-1,-19
14,32,89,-18,61,-27,-12,4
-9,-10,35,-43,-128,-27,-13,3
-9,-16,-16,37,-14,30,11,-50
-19,-30,-80,-47,-21,-22,-10,6
4,2,107,32,34,10,16,51
11,12,-54,-37,-13,-36,-67,12
1,-2,23,14,-13,1,-2,17
-22,-10,7,29,-5,0,2,-101
8,-15,-11,-44,-23,-3,32,47
0,-12,-104,15,-11,-15,-37,2
-12,30,30,69,14,-1,-19,8
32,1,57,-91,-36,4,47,69
-14,-3,5,-20,31,0,-20,-4
-5,-16,-69,64,-41,-1,1,-83
-21,-9,26,-102,-8,-3,24,-50
-21,-21,-36,7,79,36,-7,-26
34,25,48,48,-128,-29,-12,19
5,3,-4,8,33,-36,-20,4
3,-4,-8,56,36,28,19,6
-17,5,-28,-67,18,-5,-8,-16
-11,-10,-21,-15,-26,-23,-7,-13
-6,6,24,118,121,41,8,-11
-10,-21,-49,-128,-57,-17,-6,-4
-9,-20,-17,119,7,14,4,-10
-4,5,36,5,72,0,-12,-4
-13,-1,2,-40,-79,-42,-15,-11
25,18,18,63,127,42,4,12
4,17,36,66,-96,41,54,-5
16,2,-10,-112,41,-10,2,36
-7,6,10,15,-38,-10,-29,12
-9,-22,-24,-5,-69,1,60,16
27,10,7,12,-13,-24,-70,36
-5,15,30,-19,24,-7,-35,-27
-2,-1,-24,-45,2,-28,-1,16
-5,12,87,7,-61,16,-9,-19
-20,2,74,51,-26,-9,46,-27
-5,-26,-48,70,80,22,-12,-16
23,-9,-74,-118,-34,-20,-20,22
-5,9,-63,-30,-55,-20,-19,5
-19,-13,65,68,11,36,0,3
7,-10,-36,-109,-38,-57,33,13
-12,-12,-8,63,53,39,40,-28
-13,-1,-10,-6,10,-11,-17,8
5,-6,-14,10,43,-1,-57,-24
-3,6,4,-17,-50,-6,4,-40
8,0,15,31,-39,3,-3,15
3,-7,-32,-83,-124,-41,8,41
6,-7,1,-12,127,56,19,31
-8,20,89,93,5,-2,-24,-17
-6,3,85,-24,93,28,36,-21
-2,-8,16,-55,-128,-22,4,-18
11,8,-19,-4,63,19,-28,34
-7,-7,-44,12,-10,-12,-12,-5
-5,6,58,-13,-73,-12,-6,-1
-2,-6,-4,11,27,5,3,-14
-7,4,-30,-45,19,-8,-7,-10
-25,-7,2,89,15,10,6,-40
16,2,31,-23,-37,-25,15,75
17,3,-42,16,91,28,-19,24
-27,7,45,43,-1,-1,2,-39
23,22,24,1,-21,-19,-14,9
9,-11,-2,-16,-115,-50,-26,12
-2,-7,-9,10,127,48,70,26
-5,-5,-14,1,-43,-13,-13,-27
-22,-28,-53,-15,32,14,-3,-74
-1,22,51,40,3,21,13,12
11,-14,8,77,22,-18,-29,46
10,7,42,-24,-43,-1,11,7
-11,-3,-81,-62,15,0,-2,-12
-17,-10,60,-49,49,-21,-27,-39
-14,-2,32,105,-104,-1,-4,-27
4,-10,-14,-99,-128,-38,28,33
11,11,-8,127,127,110,53,14
5,10,89,-50,65,27,11,1
-8,-2,-63,-104,-59,-34,-35,-12
-6,4,-16,4,-14,-16,-6,5
5,5,38,48,22,1,-21,-6
4,3,-39,-99,-33,-6,8,9
2,-9,-41,53,43,1,-25,-16
-19,-11,40,9,-10,-26,11,-33
13,-1,0,127,37,0,1,52
5,5,-20,-128,31,-3,-8,13
-2,-1,-4,20,38,13,-7,12
-21,-20,-33,20,40,-9,-8,-33
-39,-19,29,-61,-10,-5,37,-103
47,21,2,97,-92,-24,-68,88
35,7,-26,7,120,4,-23,121
-12,-1,-15,-22,65,25,-16,-18
-11,-9,-30,-18,-23,-16,-13,-33
-13,-5,-3,-42,12,-17,11,-28
2,4,25,60,12,12,-1,1
-7,-4,-45,-32,-11,-12,-18,-15
-32,-19,24,0,11,-5,-46,-53
-52,-29,-51,-80,-38,-5,13,-123
86,40,78,100,31,21,18,127
21,5,37,-36,-35,-24,1,50
-4,7,-48,74,54,21,-7,-15
-19,-18,-25,-28,20,-5,-15,-27
-5,-11,-27,-22,9,-4,-7,-17
10,10,74,-40,-34,-8,42,-1
-9,23,4,76,-55,3,-17,-13
-10,-23,-2,-13,-25,-21,-17,-17
28,29,56,83,53,25,-20,16
-3,13,-71,-128,11,-10,-9,7
1,-1,27,16,-3,-6,-11,-20
-9,-7,-9,-16,-3,-20,-4,14
-5,-12,-19,-4,-128,-20,4,-3
-16,-7,-14,38,86,25,6,-53
12,-1,-46,32,5,0,15,13
21,3,-15,-3,-45,0,-19,59
-4,2,49,-4,6,0,1,-4
-8,-2,-34,-11,-17,-24,-39,-14
-11,-1,-17,-20,29,19,38,-23
17,6,1,9,22,-45,-120,7
-9,-16,-20,27,28,-3,-13,-12
-12,-7,10,-83,-97,37,93,-32
16,8,7,21,21,-28,-74,13
12,2,-7,-41,-88,-69,-58,3
12,17,3,127,127,114,59,23
-4,0,-52,-60,-38,0,0,-7
-20,-22,-23,-61,4,22,10,-63
-10,3,42,-50,-41,-13,-14,-9
16,6,11,44,81,16,-7,59
0,5,-7,-5,-26,-34,-28,-26
4,-15,-44,-16,-60,14,19,-1
-1,2,28,55,74,7,-6,27
-11,-5,4,37,-43,2,55,-9
-6,-3,-9,43,9,1,-32,-11
5,10,-27,-67,51,-2,-14,8
-16,-26,-4,-60,31,-2,74,-21
4,-10,4,51,-128,-4,-43,22
5,-16,-128,-109,53,-6,-17,-4
-12,1,23,42,24,-9,-5,-13
-3,-7,-31,-40,0,-1,0,-1
-8,3,-3,-8,0,2,-6,-19
-15,-9,8,7,8,2,0,-34
-19,-10,-3,6,36,10,19,-31
-2,-6,-23,-116,-99,-100,-55,8
24,-5,4,100,-24,72,57,48
3,4,-6,74,86,8,-15,13
-5,7,-20,74,33,-8,-15,-18
-11,2,-20,-128,-20,-10,-13,-17
-5,8,13,1,-11,-17,-19,-17
-15,-9,25,31,3,1,14,-36
11,-13,-27,-98,-38,-33,-27,27
0,-1,11,63,-9,19,-11,-7
5,4,0,-20,-2,-14,-13,18
-22,-10,-86,54,113,38,41,-19
-4,-10,59,-69,4,9,24,31
-7,-10,-46,20,17,10,25,-19
-6,22,106,49,36,23,2,-28
14,-11,4,-123,18,-36,-81,10
13,-6,-32,-23,-128,-59,-39,49
9,12,-6,127,127,75,11,15
-6,3,-9,-99,13,-9,5,-15
-10,-20,-18,87,7,3,9,-15
-38,-28,-31,-100,3,-10,-7,-103
-11,-11,-33,-72,-12,-7,12,-48
-22,-9,32,60,-128,-25,-2,-39
11,-12,1,69,103,19,30,41
6,9,31,-7,52,-9,-40,1
-4,5,-66,-39,-28,-21,-13,-5
-7,-12,27,-1,-13,-5,-1,-9
-4,6,26,9,-20,-8,-12,-6
-21,-14,-17,-44,35,6,14,-25
6,14,-65,-17,-128,-46,-37,-41
27,29,127,36,35,26,-24,55
3,5,11,46,59,-3,-16,7
-17,-16,-43,34,22,-5,20,-34
-1,-2,-36,-78,-13,-22,-20,19
9,4,-23,18,32,9,-12,17
-6,-10,-45,34,-8,6,6,-6
-23,-6,4,-8,34,13,31,-59
-29,-20,-13,-128,5,-41,-40,-46
63,1,13,127,-128,-20,18,120
13,41,51,24,123,24,22,37
-5,-5,-30,-57,15,-7,-6,-11
-11,-7,6,-34,1,-9,-16,-9
-5,-1,-22,0,-14,15,12,32
5,1,-1,-20,-30,-20,-18,-47
2,2,46,14,-4,-13,-9,3
-10,-20,-15,-91,5,-25,-20,19
0,-7,-22,64,-43,9,5,-10
-7,-2,-3,16,20,11,18,-12
3,-2,-6,-25,-33,-7,-1,9
-9,-8,-11,62,9,43,127,-36
-7,-9,-45,-101,39,-16,-96,8
33,1,-15,-100,-62,-58,-41,100
8,11,-6,127,21,65,44,28
-17,1,57,53,107,27,9,-30
4,1,-12,-5,-39,-10,31,12
4,14,-31,-8,18,22,0,-6
10,-11,21,56,63,15,12,19
-9,-8,-8,-29,-44,-28,-18,-30
0,-2,8,41,-102,-5,8,6
1,-19,-47,16,-14,9,10,-20
-1,6,11,-128,-92,-10,-11,4
-2,9,13,55,24,6,-5,4
-14,-19,-24,-98,24,11,-1,-31
-36,2,21,-67,27,26,93,-103
-9,-17,18,-33,-76,-40,-56,-18
28,-6,-41,126,-128,-68,-55,89
11,6,34,54,127,73,14,6
-5,-7,-49,-60,-33,-12,-8,-14
-9,-1,10,-21,-12,-5,-14,-9
-14,-6,22,-38,36,-13,-9,-43
-11,-17,-34,15,-47,3,28,-15
-1,-5,-28,31,27,16,54,50
12,25,91,8,-6,18,31,5
0,-8,30,91,-18,-11,-19,-21
7,27,-12,-101,21,-29,-72,-7
-12,-23,-63,-45,-16,-16,-26,-11
-8,1,32,-14,-4,-2,-17,-19
-6,-9,-18,-43,-5,-21,-23,-28
6,2,14,-14,19,13,67,32
-14,-7,-7,23,-37,-7,-8,-27
2,-13,7,99,-86,-3,-1,52
7,-15,-32,-36,37,-4,12,15
-10,6,8,-17,56,-8,-15,-4
-8,0,25,1,40,22,6,-17
3,11,24,0,14,-16,-22,7
-28,-15,-12,74,-19,25,100,-63
3,-10,-30,-8,-94,-30,-70,-5
37,41,31,-51,127,67,-2,47
-3,-1,-3,-105,53,5,-17,0
-11,-19,-24,0,-36,-14,-7,-2
-12,-11,-2,-19,31,5,28,-31
-4,0,24,24,-54,3,7,-20
3,-15,-10,23,-28,-35,-40,10
-9,-3,-3,-72,14,-15,-27,19
3,4,-14,-1,-128,-65,-59,-49
6,-1,-7,127,126,54,23,-4
2,7,13,-118,-58,-3,-1,10
-12,9,35,-14,33,-14,-14,-18
-12,-6,10,36,-2,-19,-8,7
-21,-11,-6,-57,-87,-18,16,-16
25,13,8,-24,127,25,-18,41
-2,-10,-7,25,66,5,-10,-6
2,-1,-20,7,-55,14,53,-7
17,-2,-3,49,54,-5,-20,25
6,3,-1,17,-15,-24,-28,14
-12,-8,-37,-93,-19,-14,-9,6
-27,-4,-6,10,73,46,75,-64
-4,-10,-21,-60,-66,-53,-44,-17
3,-9,1,61,-48,-14,2,29
12,14,34,79,127,44,22,13
1,15,-28,46,48,40,34,-13
-13,8,-6,-7,43,3,-23,-55
21,14,104,19,-26,-18,0,67
5,3,4,17,-6,-24,-35,5
-4,4,-12,-62,-16,-9,2,-12
-10,-8,-34,26,-81,-11,9,4
13,-1,27,90,-30,-1,9,16
-15,4,-20,-128,-68,-15,-7,-41
1,-6,-10,42,-18,-5,-10,4
-8,-4,37,20,14,-1,-10,-18
-10,-6,-39,-39,-20,-13,-1,-24
13,-1,-16,29,-13,7,20,68
-7,-10,4,-22,-4,15,57,12
-10,-5,12,57,43,4,-50,-33
13,16,16,-91,8,-42,-34,30
3,-2,-28,-7,-50,-6,-3,6
-10,1,28,34,-42,16,6,-53
9,5,-75,2,90,24,7,31
3,-12,34,-31,-26,1,1,27
11,31,127,19,-21,10,5,7
-7,-12,-60,-48,39,2,11,-25
-1,2,30,16,-42,-38,-19,0
-4,12,21,-42,-5,10,-9,-30
-5,-12,-55,-45,-7,-21,-6,-3
-2,-7,-40,2,-128,2,-3,6
3,11,65,96,-17,22,53,-6
-1,-2,-19,-64,58,-18,-34,-3
-8,-18,-18,2,-25,0,-12,-3
-8,-16,-17,30,-123,-26,-1,-10
-11,-6,-13,25,127,73,84,-23
6,10,-31,-75,6,-19,-26,10
-8,-3,52,-7,-13,-15,-28,6
4,-2,-10,63,-128,-3,4,12
-20,-9,-8,-18,70,25,58,-104
-22,-22,-5,-128,-55,-46,-64,-12
37,3,-30,62,-128,-20,10,126
8,16,47,33,102,30,3,11
-12,-4,-57,2,0,-2,-4,-13
-13,-10,-19,-40,-5,-4,22,0
-6,5,61,-14,-6,2,18,-20
1,4,-15,30,-25,-25,-42,-41
1,-16,-46,55,23,5,-28,14
4,8,90,-113,17,-11,22,-8
-3,4,-22,-38,-4,-10,-8,17
13,12,-20,84,63,45,7,11
-3,-5,11,58,-56,-36,-8,-4
-23,-7,-61,-64,-7,3,-7,-50
-19,-7,42,26,8,-6,12,-62
30,9,22,-20,49,-12,-42,127
-3,-1,-21,-32,-29,-48,7,-11
7,10,-33,127,47,68,25,-13
6,-6,38,106,127,25,-20,-13
-13,-17,-9,96,19,8,-15,-16
-11,-13,-79,-96,-17,-9,-14,-17
-13,4,84,-49,-30,-11,37,2
2,15,25,9,-27,0,1,-19
0,-12,-56,-14,-46,-35,-6,11
4,-4,-30,6,2,5,-10,14
-3,-22,-23,-66,27,12,-1,6
8,27,-7,27,-5,-5,-12,-21
-10,-17,13,-22,-38,-4,2,-32
0,-13,-28,-24,4,-8,-12,27
2,4,17,19,8,13,15,22
-4,3,-18,-45,25,-7,-3,-1
1,3,8,47,-128,-39,9,11
-5,-9,2,-14,87,24,-2,-25
-11,2,-12,51,41,31,42,-66
-1,-6,-2,-7,-12,-19,-2,19
2,-2,-6,13,30,3,-10,64
9,-4,-9,-54,-24,-20,-13,10
-16,3,8,56,-40,9,23,-48
-6,2,-8,100,-21,0,-2,-9
14,4,0,-52,73,30,6,10
-4,-10,-33,-48,5,-16,-24,-17
-4,-3,48,36,-57,-18,-7,-34
-3,-1,-30,-26,-7,-2,2,25
-14,-15,-6,42,29,7,26,-15
8,3,-27,-81,-8,-16,1,3
0,-1,-34,53,43,7,-14,13
-9,2,4,35,37,3,-6,-10
-12,-14,-13,-128,-118,-7,35,-28
16,-5,-16,1,-72,-37,-73,44
11,8,6,28,69,16,9,32
-17,-7,-19,-1,13,1,8,-32
2,-9,42,-16,-59,-32,-23,-21
26,15,12,39,44,26,12,61
3,22,20,19,125,30,7,9
1,14,3,17,7,-19,-30,-11
-13,-6,-4,-6,5,9,-1,-15
-2,-11,-23,-3,24,-2,11,-19
-9,-17,-38,-53,-19,-32,-9,-12
-5,-10,-5,-119,-3,-28,-22,-1
19,5,17,42,43,-1,24,44
-6,-3,-1,38,-8,21,11,-30
5,-3,23,13,2,-14,-20,14
-9,-13,-74,-34,14,-2,-4,-8
-7,-3,-14,68,96,2,10,-18
-4,-7,19,-78,-51,20,16,1
5,3,-14,-20,-21,-25,-55,12
-12,-2,-15,29,27,1,-5,-18
-11,-7,-43,-9,44,-1,10,-20
-18,1,-7,37,-20,17,27,-74
0,0,7,-56,-13,-27,-33,57
19,13,8,-6,8,-11,-17,25
-9,4,50,96,-2,3,-2,-26
1,-15,-30,-103,3,-4,2,2
4,-1,-8,40,-10,-5,5,4
-21,-18,0,-9,-29,-6,4,-49
-15,12,64,78,47,20,8,-52
33,-14,-82,-128,-52,-25,35,127
1,-6,56,61,6,3,-47,-47
5,10,-6,22,73,22,30,-1
-8,6,62,32,11,1,-17,-16
0,0,-22,-29,-24,-32,-57,-25
-3,4,-1,85,-34,13,15,-26
-7,-12,-101,-32,23,-14,-19,-2
22,1,127,34,-54,-21,-4,78
-12,-21,-84,-38,19,6,-4,-24
-15,-9,-18,-80,16,8,-6,-12
4,14,9,-14,55,23,57,13
6,3,9,58,1,-4,-18,48
-6,-15,-30,-105,-26,-24,-44,-35
2,0,-20,-4,-95,-27,3,-13
-9,-8,-25,74,127,41,2,-22
-3,-4,22,-22,-14,9,9,-19
-6,-7,1,16,-3,-3,8,-4
4,5,61,-43,-16,-22,-39,9
-4,-10,-12,12,-29,-11,-36,-33
-6,-2,-49,-128,-22,-11,-4,-11
-8,2,14,-2,6,-2,-1,-11
1,4,-18,10,-5,-11,-22,-5
12,4,6,-24,16,-11,7,-1
-7,-7,-10,4,-15,20,23,13
8,17,20,22,1,20,5,16
-2,-20,-41,-53,7,-4,29,-27
14,-4,12,2,-90,-63,-119,35
-13,-6,3,62,111,15,-11,-33
-6,4,-10,-63,-18,-2,5,-8
2,7,-34,-1,19,16,15,18
-18,-10,66,-13,28,7,-8,-43
16,1,44,18,5,-48,-34,82
3,1,17,29,-39,6,-9,-32
5,8,0,26,61,20,6,-7
-6,6,-8,39,19,-4,-1,-12
-16,-10,6,-8,-5,-8,-12,-19
6,3,-8,-12,17,3,13,6
-5,-12,-58,13,-37,-8,-16,-3
-6,-11,11,-45,-11,-7,-8,-8
-11,1,9,49,41,17,13,-17
-4,1,-47,-23,-73,-27,-31,-16
27,10,63,39,54,18,27,89
9,4,7,24,-78,-22,9,-2
-5,-6,-27,27,-13,-10,-5,-6
-15,-2,-13,-19,46,0,-23,-30
-20,-13,-2,-19,-65,-12,13,-26
23,13,12,81,25,21,7,41
-5,-7,16,-39,19,-18,-10,34
3,-3,-20,-22,27,-19,-45,-5
-8,-8,5,-10,-80,-9,3,-22
-13,6,-4,-43,-119,-33,-7,-19
-5,5,6,15,-78,3,6,17
3,7,127,55,-17,32,38,-46
-12,-13,-40,-9,-8,-15,-9,-4
8,9,2,23,16,1,4,3
5,2,2,-122,-6,-7,8,26
4,-9,-24,22,8,-10,-24,14
-16,-16,-26,-24,-30,-22,-41,-51
3,10,32,114,-45,0,15,3
-8,-4,0,-66,64,24,14,-14
-4,-4,-10,6,-11,-22,-26,-14
-10,-6,35,21,-2,-8,10,9
-8,-6,-26,-52,26,-1,-7,-7
1,-5,-9,32,-39,-15,-11,-53
21,14,32,45,0,21,4,70
9,15,27,-29,46,7,8,33
-6,-9,2,2,-42,-12,-2,-1
-7,7,-12,-34,-20,-13,-16,-22
-14,-6,-53,-6,54,21,-9,-54
-5,-14,18,13,32,-25,-13,51
-2,3,6,-37,-4,2,13,10
6,-4,-42,45,-102,-5,-4,1
14,6,19,47,49,26,14,6
7,19,58,-9,41,6,1,-6
5,12,-29,-57,-2,-4,3,7
-10,13,32,4,23,5,20,-16
-7,-13,-6,88,-11,-33,-29,-12
-1,-9,-8,-21,22,12,-20,1
-7,-15,-24,16,-4,-5,-4,-13
5,3,20,-12,11,11,16,19
-4,7,8,-19,-57,-8,14,-3
-13,-10,-31,26,28,18,18,-24
2,-2,36,12,12,-20,-52,-3
15,2,-27,-43,-23,-10,-1,35
-9,-6,-2,-87,13,0,16,-5
-9,-4,26,25,7,10,15,-18
2,-11,-78,0,33,1,-19,10
6,3,28,-14,12,3,-4,11
-4,4,-57,45,-39,13,9,-1
-7,-9,12,-40,20,-4,-4,-10
0,-2,-7,12,50,6,10,58
-3,-2,-28,10,-22,7,2,-40
4,-4,-1,-14,-9,-14,-22,-5
-11,-10,24,-3,-30,-16,-12,-11
-16,-24,-36,-46,-81,-22,-5,-38
2,-5,-81,18,87,22,24,25
20,37,73,70,28,38,23,17
-6,-3,44,74,24,3,-11,-31
-10,-14,24,38,4,9,10,47
0,-14,-57,-128,-39,-13,10,-17
1,-3,-29,11,50,28,31,-25
5,10,38,20,-27,-22,-25,16
10,21,-11,36,-2,-6,-3,25
-8,-19,-14,-39,-21,-12,-28,-16
-10,3,24,-5,-6,6,-2,-23
-1,-8,-38,23,48,23,56,39
5,15,86,-5,23,-4,7,15
0,-4,-52,8,-42,-5,5,0
-13,0,75,45,-13,14,-4,-50
-4,3,8,81,51,39,98,-7
8,-6,-59,10,-8,-29,-41,14
6,-14,-65,-128,-15,-24,-57,26
-9,6,50,-1,-112,-21,-17,-16
3,-4,16,54,6,13,14,5
0,9,-6,15,8,8,7,-11
-14,-10,-14,35,13,-1,21,-53
-17,-8,-12,-2,20,8,21,4
-14,-16,-30,-2,-85,-36,-68,-71
18,5,26,59,21,29,31,45
8,3,-52,-62,30,13,-1,51
-8,11,26,-32,5,-7,-9,-14
-2,-4,-69,18,-15,-15,2,-13
-20,-12,56,-13,28,10,24,-21
1,-4,-4,-6,-47,-23,-23,7
14,8,-1,-9,-128,-28,-2,16
1,-5,-9,5,37,6,15,3
-6,-5,-31,-22,15,-9,-8,-11
1,-12,-5,-23,-20,1,7,5
0,9,1,30,127,28,-16,8
-15,-13,-24,-39,-38,-24,17,-4
-3,1,-5,55,-128,-7,-3,-44
18,20,16,-80,61,7,-14,52
1,11,60,-14,16,-7,-9,5
-8,-6,-62,52,-8,-8,-4,-31
-19,-3,44,-33,-8,-6,37,-9
5,-3,29,-111,-35,-12,-48,24
3,1,-38,-29,19,-15,-26,2
-5,-2,-72,10,24,40,112,4
1,-5,29,2,-44,-1,-19,5
-5,0,19,49,-56,-30,-39,-2
-8,-15,-27,-25,20,4,-6,-14
-5,-9,-9,-7,0,1,4,-17
1,12,-20,-26,-33,-12,-1,-15
2,-9,-8,-31,-57,-5,6,-1
-4,-3,-48,46,-38,10,24,12
3,-8,40,27,9,-2,-46,-18
5,-1,28,-57,-123,-26,5,7
9,5,11,12,18,11,3,25
-9,-3,-13,1,8,0,6,-6
-2,3,-32,-3,18,-6,0,-5
3,17,62,126,-42,10,16,-5
-11,-18,-37,-128,90,25,8,-24
-17,-12,-36,-32,14,-16,-62,-27
-1,-12,23,-64,-11,-44,-47,32
6,2,-30,51,103,49,30,25
4,22,78,43,-8,0,-6,-5
-1,5,-48,-2,-3,0,1,-2
-9,-12,6,7,34,-5,6,-18
-9,-11,7,15,8,-22,-8,-4
-17,1,-57,-42,-114,-5,39,-17
19,-6,-15,16,59,-6,-63,24
20,6,11,12,22,7,-1,17
-1,1,24,29,35,7,-1,2
-15,2,45,-59,-14,1,-3,-30
-4,-10,-5,89,5,-7,-10,1
-8,-5,-12,58,15,6,6,-30
-15,-1,-15,-34,-7,6,-4,-40
-9,-9,48,12,1,-10,2,-24
27,17,0,18,-29,-14,6,66
6,5,14,25,-2,-10,-16,21
1,3,-7,10,-3,5,5,4
-10,-10,-48,-6,19,-7,-11,-26
1,-1,55,-6,-2,-3,-17,-22
-11,0,-74,-32,-50,6,77,-4
6,-15,26,9,-7,-15,-25,46
1,3,-22,-14,-25,-12,-10,19
7,5,11,-10,93,20,1,14
-8,-13,-33,35,-46,9,2,-13
0,7,31,-15,0,-22,-5,-7
5,11,-40,-37,89,40,17,4
2,0,-13,-19,-38,-1,22,-9
-2,-12,-11,-3,64,-1,-32,7
-15,-7,9,36,0,-15,1,-18
9,-6,-14,-67,-82,-3,11,17
-1,3,16,36,31,-4,-30,-14
0,2,47,8,41,1,8,14
-1,-4,-19,31,-40,1,-8,-2
-12,-3,-5,-20,0,3,7,-25
0,-2,-16,-13,19,10,28,-5
-11,4,5,3,13,0,-24,4
15,7,4,-26,-10,-26,-72,39
11,3,-88,19,12,-8,-13,-1
-1,-2,74,10,5,-3,1,5
2,14,39,5,-10,-5,17,-2
-11,-2,-15,-48,-36,-13,-5,-40
-2,-2,6,40,44,21,4,-2
16,4,32,38,-11,5,18,40
-8,-17,-45,4,-45,7,1,-5
-9,-7,-8,10,-17,-4,-1,-1
2,0,4,-128,-24,-22,4,2
2,8,18,51,-6,-9,-7,-7
-2,-2,-10,11,27,7,2,-11
-9,-1,-10,13,-66,-19,-2,-9
-6,0,3,21,78,33,19,-9
-7,-9,-17,-31,-18,-24,-6,3
13,10,2,5,-128,-23,-25,33
2,-8,-16,-15,62,19,0,0
2,7,19,42,20,-2,-8,8
-7,-5,-24,-29,6,9,41,-11
-4,-4,0,-3,6,6,2,-10
-5,-3,-18,4,6,-16,-21,4
17,20,16,10,-54,-12,-34,0
-1,-8,26,16,15,2,0,1
0,-5,6,-128,-30,5,2,-2
1,-8,-35,-56,-13,-16,-7,25
-9,-5,5,28,48,7,11,-16
1,7,23,9,-40,-11,18,43
3,1,-34,16,39,-8,-23,8
3,1,1,5,-15,0,-13,-11
4,9,8,-10,-15,-4,13,-5
-13,-13,29,0,-57,-13,5,-10
-1,5,-4,-5,-41,-28,-25,-8
3,2,-1,29,113,43,6,-6
-1,3,-35,38,25,10,2,1
-1,6,13,-18,24,-10,-9,-4
-8,-8,11,-44,-21,-3,17,-1
-5,-9,-6,5,-48,-11,-8,-4
-1,13,-7,-18,37,3,-1,-4
-1,-7,-10,25,-15,-11,-10,-2
5,-2,-5,-17,7,-6,3,15
-4,7,23,-39,-58,2,20,-1
-1,11,60,-1,74,5,-14,-18
-17,-8,-41,74,-48,2,42,-52
2,-1,1,-81,9,-9,-44,9
4,1,-29,-6,1,-20,-54,39
13,5,27,9,-56,-21,25,28
7,2,-24,42,2,42,18,20
-15,-2,10,1,9,2,-10,-53
5,-3,9,14,9,7,21,52
5,-6,0,9,-2,-6,10,13
3,-1,10,-90,22,0,-14,-3
-6,-2,-18,0,3,3,-21,-16
-6,-3,-29,-14,11,-5,-2,-27
0,-11,-5,-52,20,-25,-39,-17
-10,-8,3,17,-128,-33,-7,-15
9,8,4,45,74,24,7,-1
1,5,22,82,-25,7,-4,4
0,-3,-46,-20,51,0,-1,0
-5,1,-8,1,1,-3,12,-3
-7,-5,16,-57,46,8,-7,-13
-13,10,-45,-47,67,-14,-10,-24
-3,-16,39,51,-128,-53,-16,5
19,12,-11,37,127,39,8,-1
4,1,58,-17,8,-32,-29,15
-2,2,-3,34,1,-2,10,6
-12,0,-37,-45,8,1,-9,-31
-13,-2,-19,17,7,5,-50,-61
9,-8,1,33,-10,10,49,32
-3,-11,-13,-8,-23,-8,5,29
17,26,65,-35,-33,-10,-26,14
4,-2,11,-46,-7,-20,-49,4
3,-5,-20,-7,9,-5,-2,0
-8,-10,-53,-4,10,-6,-5,-15
-6,11,34,9,-92,-9,19,-10
-9,-5,-14,-20,49,16,7,-18
9,3,-6,-70,-104,-23,-12,14
6,0,5,59,-41,7,28,8
0,1,0,40,23,-5,-28,-14
-7,0,-7,20,5,-3,-2,-2
0,5,-2,-27,-9,8,8,3
-2,-9,-34,-13,-24,-7,-8,-1
-9,1,28,-6,22,0,-2,-13
-1,2,22,-7,9,-8,-15,-1
17,1,72,12,-47,-15,2,6
-3,-11,-27,9,4,0,17,1
-7,-2,-26,24,36,-2,-23,-15
-3,5,2,-67,-16,-5,-4,-19
-5,-20,-23,-82,-42,-14,5,5
-20,-10,24,49,65,32,45,-64
12,-5,-2,12,-1,0,1,63
14,23,19,-34,-12,-23,-52,46
-1,-2,-28,-9,36,-19,-66,-50
-3,8,-36,-2,16,6,19,11
-4,4,32,-4,-38,9,18,-4
-1,-4,22,25,-60,-31,-6,20
-1,2,-24,75,127,72,25,-49
0,-2,47,-14,20,-7,-2,-6
-4,-4,-72,-51,6,-3,-6,-21
-9,-7,38,24,30,-5,-18,-10
-4,-12,21,-50,-103,-30,-34,-4
1,4,-38,52,30,25,24,29
-7,-2,-1,21,-7,-9,1,-8
-1,1,-5,-2,59,25,7,-3
5,9,2,21,-21,-6,6,2
-5,-8,-28,-116,7,-10,-1,-2
-4,-6,45,4,-31,-12,-7,-13
2,-6,-23,45,88,17,5,-4
-3,-8,-31,-23,-83,-23,-21,2
-10,-2,0,14,108,41,16,-39
-18,-1,-18,-15,-116,-17,6,-4
22,16,62,101,29,-16,-37,30
0,-1,-16,-84,10,2,40,19
-10,-6,-8,-24,2,3,12,-31
5,-19,-55,-128,-16,-27,-35,31
-13,-6,30,53,-47,-17,-26,-14
2,8,-7,35,9,18,3,-23
-1,-15,-7,-13,2,-2,6,10
-7,7,48,9,11,0,6,-5
-1,-3,-20,7,-32,15,18,6
-7,3,6,23,12,-11,3,-9
-8,-7,31,-16,26,2,-21,-35
2,-4,-32,28,27,0,2,-2
9,-13,-34,-20,23,10,1,34
-5,-5,11,-28,-85,-13,13,0
3,14,-50,29,87,22,-20,-8
-11,0,37,8,20,-10,-12,-10
1,-8,19,1,-12,-21,-21,0
-4,3,-10,4,81,18,-9,-13
-3,0,-24,-19,18,-9,5,-5
-5,-3,-5,28,-77,16,25,-15
-11,6,12,27,-39,-10,-1,-18
17,-5,-19,-93,10,1,-19,40
-4,-13,20,119,7,-6,-12,-9
-10,-5,4,-128,-17,-24,-16,-20
-6,-1,-38,66,-70,21,38,3
6,0,-1,10,20,-3,-25,-1
-2,-7,-20,-2,-1,-6,2,6
-7,10,-40,-21,5,-7,-4,-12
-4,-2,34,20,-10,0,0,1
8,7,29,-16,3,3,3,-1
-5,-5,-11,8,8,-5,-16,-3
7,7,17,-1,36,19,18,8
-2,-5,6,52,-1,-9,-4,17
-4,0,13,-40,-35,-27,-40,-9
0,-6,-75,-55,9,4,17,2
-6,-6,7,42,2,12,0,-42
-4,0,-12,-128,-9,-5,0,15
-10,-11,-25,-17,-13,-10,26,26
10,-3,26,71,25,0,-28,16
-4,-4,1,32,-12,-8,-6,-12
-12,-6,-16,-74,60,14,-1,-16
-4,-2,-7,8,5,-5,6,-16
2,-1,-23,18,-26,-1,10,4
3,-11,21,5,4,6,-8,2
4,13,13,9,-31,-6,-8,1
4,9,-6,-32,40,3,15,-1
-2,-3,-11,74,-22,22,12,0
-6,-5,-5,-4,10,-9,-2,-15
-7,-9,-23,-41,-29,-26,-48,-45
-10,-3,-20,66,26,19,17,-24
-5,6,64,9,-10,9,35,46
19,-4,-33,68,47,-24,-99,-7
22,22,90,-128,-110,-42,-32,31
-14,-22,-4,23,53,6,-18,-17
7,20,44,37,62,12,9,-6
7,-1,-8,35,-40,-7,23,34
-7,-10,-18,-30,10,7,4,-14
-9,-11,-34,-31,-8,0,3,-16
-5,-11,-35,2,-54,-5,7,4
8,0,10,72,68,-4,-14,-30
0,8,49,-20,2,21,13,27
1,-14,-35,-71,1,-8,-37,-9
-7,-9,-1,24,-53,-15,-10,-25
3,7,-36,-44,-98,-22,-4,19
3,3,35,18,-5,10,15,14
1,11,13,29,55,16,-6,-13
-6,-8,-18,-31,-2,-5,11,-4
-7,-10,-7,-43,-11,-28,-15,-8
-2,6,2,79,-105,7,12,7
-4,4,-15,13,55,28,20,-15
-6,-7,-21,-38,17,-7,-26,-20
-16,-15,-9,13,7,-5,2,-26
22,10,0,-72,-32,-60,-85,99
-4,-2,-2,-6,21,-2,7,-33
4,13,-2,23,-15,-2,17,4
14,17,59,35,70,34,13,34
2,-10,-10,115,14,-4,-7,-3
-6,-2,1,44,24,3,-1,-7
-6,3,-28,-110,-22,3,3,-5
-14,-10,12,3,-25,-14,-4,-13
2,-14,-34,-13,33,14,1,0
-9,6,5,-18,38,-4,-1,-20
-11,-11,1,-30,-54,-11,14,0
21,10,23,68,71,54,42,17
19,-2,-11,19,53,3,0,51
3,1,-44,-23,-26,-20,-28,-9
-2,10,83,21,-15,-14,-15,0
-11,-7,-12,37,45,-10,-17,-21
-7,-19,-79,-6,-114,-9,15,-7
16,26,47,23,72,28,24,-1
-2,-13,-50,-43,-11,-3,-4,1
-22,0,32,9,28,3,-14,-115
-14,-9,-14,-23,-24,-37,-53,-6
33,0,-12,81,-59,20,55,127
6,8,34,63,-4,7,1,2
-8,-10,-36,-76,-20,-12,-11,-13
-2,1,20,-56,19,-4,-8,-12
-10,2,13,-29,-5,-7,-11,-18
-15,-17,-19,43,-13,4,5,-14
1,11,55,48,30,-1,-3,4
-4,5,-54,-36,2,9,33,-1
-1,-17,86,14,3,-23,-28,-17
1,7,64,44,-54,17,13,-4
2,7,-25,-32,12,7,20,-1
5,6,53,67,7,4,21,34
1,10,-6,-103,-44,-23,-56,-15
-3,-11,-31,-50,-4,2,-20,-3
-28,-10,15,-13,63,24,39,-46
0,1,1,105,-126,-33,-5,-17
35,13,-49,-70,-5,4,19,87
-6,-8,28,45,31,1,-10,-6
-5,-2,-11,3,24,-1,3,1
-17,-1,18,59,-56,-19,-15,-32
-19,-4,-17,-87,29,16,20,-26
8,2,13,40,32,17,20,4
-12,-10,-12,-10,86,-2,-12,-32
-4,-10,16,49,87,3,-8,23
15,5,23,13,32,39,26,28
-6,-6,-40,-57,14,-8,-7,-7
-6,3,-20,22,-9,1,-3,-11
-10,-14,25,-7,13,5,15,-8
-2,3,21,-14,-3,-16,-26,3
-18,-5,-33,-82,-54,-35,-48,-61
3,1,19,127,34,51,57,51
8,-8,-35,-71,114,3,-29,25
-10,-4,16,18,-6,-19,-18,-3
-4,-3,6,18,-1,9,5,-7
-1,-5,-58,-47,-5,-11,-9,2
-10,1,75,8,-89,-11,10,-14
-3,8,21,9,32,25,32,-13
5,-6,-53,-81,-83,-14,-26,28
-11,2,22,19,26,-21,-30,-59
38,14,49,51,-87,11,43,100
27,23,26,19,9,-31,-54,62
-1,6,-47,-88,-7,-1,-3,-19
-15,-26,-1,40,-14,-14,-11,-27
-6,1,-19,-12,51,14,-1,-12
-34,-21,17,-6,-2,-4,32,-108
5,-5,-10,-38,-3,-18,-31,38
44,2,-64,-13,-128,-78,-23,109
7,-11,82,127,114,60,20,16
-5,16,0,-14,45,5,-4,-5
-10,8,-5,-2,59,2,-9,-22
-10,3,26,26,5,-4,-2,-19
-14,-4,-7,-25,-104,-7,31,-18
-16,-16,-23,23,17,-2,-16,-30
8,-4,0,-121,-29,-14,-13,18
-5,1,5,52,-51,-2,-1,-11
-2,-11,-40,-94,65,3,3,13
-4,-6,-26,42,-2,29,34,11
-3,3,24,5,-30,-32,-34,-3
-9,-8,-48,-83,51,8,32,-32
8,2,7,48,-128,-31,-2,28
3,-8,-2,72,127,6,-14,17
-2,-5,-87,-56,-12,-8,4,-1
9,15,64,31,58,7,10,22
-11,-13,32,-15,-6,-7,-13,-25
-31,-18,-31,9,10,16,13,-95
3,-8,-24,-128,-62,-35,46,99
25,-4,-87,68,-108,-18,-42,69
28,38,100,-75,4,36,17,10
-9,-23,-67,6,-55,-8,-8,-18
-14,-2,-18,-45,12,-3,-5,-15
-13,-11,3,-24,8,2,-6,-19
-10,-12,-10,47,27,9,30,-2
-26,-11,-25,-41,-2,11,48,-15
27,5,7,-7,-56,-48,-47,7
6,-2,9,113,45,38,23,11
0,-3,-41,18,49,8,-11,1
-16,11,13,-39,4,-6,-9,-23
-13,-12,-19,-19,-8,-7,0,-11
-5,-8,-17,-84,-29,-14,-11,-3
1,0,-1,5,18,9,-3,-11
-8,-8,-16,-32,9,-10,0,-2
13,9,-6,46,19,30,34,1
-15,-14,58,32,-22,-11,-9,-34
9,-4,-7,47,13,-10,-7,39
-20,-9,13,-71,-92,-23,-20,-46
-5,10,-31,-63,15,18,44,12
20,-8,-6,49,8,-23,-54,36
-5,15,58,-13,-41,-24,-27,-7
2,9,-21,-2,36,-1,-22,3
-2,-8,28,-62,40,-7,-11,-21
-10,-14,-52,43,-92,-10,30,5
-9,3,-44,65,99,43,69,-23
14,22,127,-18,-46,-20,-43,-5
17,0,-11,23,127,49,21,33
-9,5,-7,114,67,0,-19,-7
-14,-13,-51,-109,-50,-14,-6,-17
-17,-8,-22,27,-10,22,61,1
-9,-9,-19,9,27,-1,-15,-71
7,-7,-13,-14,-108,-53,-4,37
11,5,4,-32,1,-3,-12,36
-8,-6,-75,22,-128,-13,22,-23
9,10,40,84,127,45,41,48
3,-9,17,-36,33,-21,-35,13
-7,2,44,23,-21,5,23,-25
-11,3,28,-50,12,-4,-18,-12
-2,-1,-31,-60,-111,-66,-4,-16
3,-7,-21,66,-128,-37,-49,-4
4,-3,-15,-21,127,52,31,28
-1,-3,-35,22,33,23,31,-4
-2,-3,-32,-59,16,-2,-20,-9
-9,-12,-20,-58,-21,-18,-20,-11
4,-1,43,23,-61,-11,6,-2
-5,15,10,-20,0,17,28,-12
-16,-12,-14,50,19,5,8,-26
20,18,-14,19,36,-9,-17,33
9,2,5,-32,-5,-14,7,39
-7,-4,5,1,-14,-4,-21,-13
-23,-23,-93,16,21,25,63,-68
9,3,59,-22,-22,8,20,90
20,-9,-63,70,-23,-25,-12,51
2,30,68,-80,37,5,-31,-11
-5,1,4,49,32,26,12,-12
-19,-26,-46,-90,34,45,64,-21
5,11,-13,-36,51,-51,-88,-16
7,4,18,17,-77,2,17,7
-14,-12,-18,73,-10,19,0,-16
-21,-20,-8,-82,68,3,2,-28
13,-1,-15,82,-63,-22,10,20
3,-3,-17,44,82,26,21,8
2,17,40,50,9,4,-5,-7
-13,-10,-5,-128,-13,9,1,-18
-21,-11,-45,-13,11,0,0,-31
7,-7,-3,-30,-66,-56,-64,23
-7,-2,-22,-6,16,-25,-8,4
25,7,-9,96,-10,25,-14,38
-4,-8,-26,-67,-32,-19,-37,-11
3,-2,64,7,40,22,16,18
-16,-2,52,66,-4,-26,-15,-23
-11,0,-100,-128,-81,-16,18,-13
-8,17,96,37,34,31,19,-23
-2,-5,-1,12,23,8,29,-5
14,0,-21,-25,-28,-23,1,47
8,-14,10,30,15,-5,-11,-2
6,6,18,35,11,7,15,11
-14,-2,0,-32,9,-1,-4,-13
-6,4,46,1,-9,12,44,9
-20,-11,-22,25,51,15,-24,-64
8,9,-41,-33,-41,-8,53,36
3,0,0,-61,-47,-15,-46,16
-1,0,-37,-25,91,20,-11,-4
1,-4,57,39,-32,-3,8,21
-9,-15,-36,10,-12,-1,19,-6
-3,2,10,41,71,12,7,19
-8,4,-73,-27,-74,-30,-22,-31
-17,-8,36,-21,-73,-32,-19,-31
8,-1,29,57,-45,14,62,10
30,19,3,69,21,17,-19,39
-6,-17,-52,-33,19,-17,-57,-26
-24,0,6,47,6,7,21,-39
16,6,14,-81,13,20,53,64
7,-4,-11,-93,-128,-52,-60,-11
12,7,-38,63,21,4,1,24
-13,-11,25,49,54,13,-11,-54
-25,-12,35,-27,42,-15,-19,37
-13,-12,-72,-31,-128,-17,45,-47
30,40,127,72,120,29,-92,22
6,19,23,14,36,10,0,7
-9,-9,-5,-23,-2,-13,0,-15
-4,-6,-28,-10,-8,-8,1,-6
-14,-16,22,-4,17,9,6,-2
-1,2,49,4,-12,-22,-50,-23
5,9,52,-51,-10,-10,-17,1
1,-11,-14,8,-56,-2,19,20
-6,-11,-37,2,1,-11,-8,-15
-5,-13,4,69,-27,21,17,-35
11,16,-22,-23,32,-13,2,51
-5,-9,-37,-128,-1,-1,16,1
-13,2,-16,-23,-5,2,-1,-23
10,0,-1,81,-8,-19,-28,35
-3,-10,-52,-2,-31,12,9,-31
10,0,-1,81,-8,-19,-28,35
-3,-10,-52,-2,-31,12,9,-31
9,15,84,92,127,36,1,41
-2,7,-41,4,-46,-7,0,-16
9,15,84,92,127,36,1,41
-2,7,-41,4,-46,-7,0,-16
6,11,71,14,43,8,20,6
2,-14,-26,-38,4,-15,-18,17
