Channel_1,Channel_2,Channel_3,Channel_4,Channel_5,Channel_6,Channel_7,Channel_8
-2,0,9,-10,9,4,-3,3
0,6,-128,-107,127,20,34,30
-11,-12,83,67,-128,-54,-2,-48
11,4,1,51,127,29,5,12
-3,-10,-87,-21,-10,5,2,-4
-21,-5,-101,-2,70,13,-4,-15
-5,22,101,-9,-108,-59,-34,-10
19,-49,-102,77,58,30,11,16
-2,-13,58,-128,-30,-51,-49,1
9,29,118,12,1,2,3,20
-16,-4,-46,-12,-8,-9,-10,-22
1,-13,-20,-8,-26,9,-6,-12
-5,-7,65,82,-12,2,6,12
-4,23,-17,10,30,-3,-4,-18
1,7,-45,17,117,27,4,-5
-13,-12,-32,-88,-70,-40,-8,24
4,-1,17,-19,1,24,48,-14
35,-7,-36,0,-96,-32,-17,17
0,14,21,-7,14,31,-3,-6
-5,2,48,58,22,7,3,-4
-1,6,-58,-128,1,-17,3,11
3,23,59,-18,-6,-8,-17,-3
-4,-25,-59,-23,-6,13,41,3
1,-4,-3,24,-7,-5,-3,2
0,15,127,7,-10,9,36,36
-6,-2,13,-40,27,1,-1,-17
1,8,6,94,10,72,45,23
1,-10,17,16,36,-65,-41,-5
-15,-11,-52,-5,113,4,-33,-17
3,3,27,34,-128,-39,34,12
35,19,81,118,-57,39,74,57
15,48,-14,89,-89,26,21,7
-18,-42,5,-66,-34,-19,-35,-28
-13,-2,-128,-88,42,-39,1,0
-4,18,127,127,-8,19,19,-30
-10,-9,-59,-35,-45,-22,-30,-20
1,-13,-68,2,8,-2,-8,-4
1,10,-21,-1,-7,1,-15,-14
-9,-10,-39,-128,35,-4,-9,-1
-24,-30,-128,-9,-42,-24,-3,-20
2,-1,59,-11,38,49,24,-1
-2,-4,-41,84,70,3,-13,-2
-4,-15,-78,-128,-107,-32,-16,-7
-9,1,-71,50,-128,-34,-1,-8
4,9,20,93,127,36,7,-2
-17,26,104,-64,-9,-47,-53,-23
-39,-13,-128,-58,50,41,61,-16
31,-23,127,127,113,10,-6,22
8,-1,-60,-22,127,80,19,10
-2,-17,-59,-42,-13,-55,-17,-2
-5,-1,-36,-5,-15,-17,-11,-8
-6,-11,-128,-40,-31,-3,12,0
-18,28,127,73,109,43,46,0
21,39,86,0,-26,18,33,12
-9,-24,-86,-6,-23,-1,-11,-3
-4,-9,-69,11,-6,-15,-10,-10
4,0,-11,-128,-35,-28,-12,2
1,-5,24,17,-6,10,4,11
2,-4,-25,-3,-13,-12,-8,2
3,1,3,-4,-26,-46,-23,-11
20,-4,-52,3,2,16,18,27
-2,-9,-2,-46,-51,2,0,-24
-16,5,20,15,92,-14,-40,-33
0,11,5,61,11,10,14,17
-20,-22,-34,-114,-100,-24,-10,-23
-17,1,-51,64,93,4,-17,-19
1,-10,44,-85,3,-41,-21,-1
31,10,-74,34,-128,17,51,49
-3,-31,-128,103,42,28,35,10
-8,38,127,43,-10,11,-4,-15
6,13,-66,-22,57,4,-14,-5
-1,-8,-123,90,26,16,-1,2
0,17,-3,-128,-9,-57,-25,0
-3,-9,-22,127,124,53,38,11
-4,-38,-67,114,-34,-10,-4,8
-5,-11,-68,-69,12,13,-6,-7
19,16,71,-57,-15,-18,2,23
-8,10,3,-21,-28,-10,-17,-12
-3,-13,-14,6,15,-2,-5,0
-6,16,34,-19,-29,-10,-9,-2
-8,-4,-23,23,12,-13,-31,-35
-8,6,44,-45,-39,-22,6,28
-13,-21,60,9,-56,-31,-33,-71
8,-15,-60,-28,-27,-11,-26,14
-6,-1,-2,-5,-5,-10,-7,0
-4,3,19,-13,-10,-4,-4,-1
-6,-4,-22,-9,15,17,6,2
2,0,-35,7,0,4,-10,-2
7,15,61,64,-13,4,15,7
-6,-8,33,-122,54,-9,-31,-9
6,3,-67,-16,-128,-23,30,-3
11,2,127,127,127,25,0,26
2,-1,-30,-10,-5,-3,-4,3
-11,-8,-16,-27,20,2,-1,-1
-3,11,-108,47,51,11,-8,-11
16,24,123,-65,-5,-9,8,21
-9,-6,106,-33,-128,-25,5,-15
-7,11,-71,100,127,99,20,-4
-7,-2,67,0,-14,-45,-36,-9
14,16,39,12,-49,15,23,8
-15,-31,-65,-25,-5,-8,-14,-17
4,-23,-52,79,-47,2,15,13
5,6,-99,-60,0,-26,-9,14
-17,-55,-83,-41,-15,14,3,-6
-11,16,127,43,38,12,-14,-23
3,4,-24,-7,-8,-4,-8,-3
5,5,-18,10,14,-29,-12,3
2,-7,-28,7,-10,1,-24,1
-4,7,7,15,23,-9,2,-9
-16,-23,-55,-26,-53,-27,-15,-21
-3,9,14,-18,-7,-8,-1,-3
1,8,-39,-10,4,9,7,-5
32,7,53,2,-2,4,14,27
0,9,0,48,16,32,12,19
-6,-1,12,-46,-7,-45,-21,-4
-4,9,-24,-61,5,-17,-52,-48
0,-6,-19,6,-128,-25,7,5
-8,10,61,-33,127,2,-6,0
-2,-11,3,127,-128,7,26,-2
-3,-8,-13,-69,97,8,-7,-8
-4,15,-60,-128,12,-15,-25,-9
-13,-38,4,-34,-80,26,36,-2
-2,2,-27,-78,54,-29,-29,-15
15,23,-27,-58,-128,-25,-1,9
7,5,58,63,81,12,-8,9
-16,-14,-10,-2,-111,-32,-11,-16
1,8,8,4,9,29,25,0
3,1,110,-31,64,6,-8,-5
8,8,16,-7,-38,-35,1,47
-15,-20,-128,37,-29,7,-16,-49
5,11,27,26,-16,-5,3,9
-5,3,2,-41,-10,-12,-9,-4
-6,1,74,28,27,20,10,-2
-2,19,85,115,1,30,4,10
5,8,-57,-50,-2,-33,-10,-8
1,-26,-42,-1,-61,-13,24,3
-6,-3,-65,37,9,15,-2,-15
3,24,61,60,40,29,36,13
-6,4,-33,-7,-19,-14,-10,-4
8,-14,17,4,-26,-11,-10,11
-6,-11,-95,-42,33,46,6,-12
-5,21,127,-5,27,-52,-41,-5
-5,2,-93,-101,64,-19,-39,-22
-8,4,99,29,-128,-20,19,-23
2,-5,-10,18,-25,16,10,-4
-5,-18,-85,44,123,41,13,2
-6,-5,33,19,-75,-20,-9,-5
0,-18,-69,-107,-14,-10,1,25
5,24,100,-24,46,-12,-3,0
6,29,-36,127,2,11,-9,-16
-14,-20,6,-128,6,-42,-36,-25
3,3,20,84,-5,-1,-2,2
-8,-16,-107,-6,-85,-28,-5,-2
8,15,97,79,27,51,25,13
-5,-9,-39,0,-68,-10,-7,-9
1,-1,-128,58,-20,-17,-19,-5
-2,-14,127,-12,-56,-8,25,8
-16,-12,-55,-39,-14,-28,-39,-24
-6,36,75,-6,-23,-22,6,13
3,-26,-18,-30,-42,-11,10,-16
5,1,-9,-42,-2,-3,-3,2
8,3,-102,-17,7,-4,13,24
6,10,16,18,13,9,-2,1
-15,-8,-22,3,-8,-21,-23,-8
-8,-7,3,7,32,26,-1,-14
7,-28,-71,5,-12,-6,1,3
-1,21,109,-1,24,16,29,15
4,14,98,103,1,22,11,-4
-7,-13,-40,-128,36,11,-17,-11
8,2,-15,-13,-43,-24,-5,22
-2,-9,-38,-42,54,15,-7,1
-6,-1,0,16,-111,-55,-8,2
-3,-9,-25,63,24,18,-10,-6
5,14,1,32,-128,-4,27,34
-32,-35,34,-32,72,-2,-46,-102
7,5,-25,-47,-56,-44,-23,2
4,7,24,61,-11,24,27,12
-7,-5,-65,48,72,-6,-18,-13
0,0,86,-19,27,-6,4,8
1,16,9,26,-53,-6,-9,8
0,-8,-84,-69,-2,-5,-11,-14
-4,-16,68,28,-4,-5,6,-1
1,7,-3,6,-34,11,-15,-10
-2,8,50,0,-3,-46,-14,-3
-7,-16,-105,34,-17,-24,-22,0
9,-6,-12,-55,-22,-17,9,10
19,23,95,-42,-1,26,5,14
-12,-1,-79,19,13,15,22,5
21,28,127,74,30,31,66,40
4,-16,-108,-57,-8,-52,-53,-31
8,-6,39,-33,-39,-22,-2,14
-7,1,13,-10,-2,-7,-26,-13
-2,-10,-119,-9,25,-20,-1,2
0,6,-28,-60,33,12,14,7
-5,-15,127,112,-3,-11,-14,-4
4,13,-101,-11,59,47,13,4
-1,-15,113,59,-128,-24,14,4
2,16,2,-95,105,26,7,-11
6,-3,-60,127,50,19,10,14
1,-12,-17,-119,-66,-28,16,17
-8,-7,-42,-81,59,-11,-40,-30
-1,6,10,-14,-38,-47,-14,7
3,-19,-117,96,127,63,30,-3
-26,-37,60,54,40,15,2,-14
-9,12,4,-16,25,-9,-21,-15
3,3,7,6,-120,-30,-5,12
-6,-11,30,18,-29,11,28,22
-7,4,-14,92,2,5,4,-9
8,-6,-12,-91,-13,-31,-29,-19
2,21,-6,-9,-37,23,23,4
7,3,-70,50,11,5,1,7
-15,-7,17,4,3,40,3,-21
2,7,62,-71,-80,-55,2,8
-4,-31,-38,-10,-35,9,20,4
10,10,-60,9,-14,-2,-17,9
-10,-8,27,-38,35,17,-10,-13
4,15,13,75,-66,5,27,-1
-8,1,-22,-11,-7,-17,-18,-3
10,-9,3,-48,-12,18,18,33
-14,-13,-72,108,38,-11,-17,-20
-14,-3,91,-15,38,26,-10,-38
-5,-18,-14,42,-128,-69,-13,1
6,-12,-1,31,71,27,11,8
-1,19,46,43,-56,-1,-5,-8
-21,-17,6,-58,-62,-52,-40,-24
6,-6,-88,-73,127,1,4,13
-2,-24,-110,94,-128,-24,11,-4
4,8,127,-35,127,33,14,8
-7,1,40,84,-62,1,3,-16
-2,-9,-115,28,59,-33,-18,5
11,8,75,-44,127,12,-15,21
-16,-4,-6,-18,42,12,-21,-57
-9,-21,-128,-53,8,-23,-9,-9
-14,-6,127,22,-42,-3,-8,-18
5,-20,-73,0,-128,-68,-17,11
8,-20,-10,41,35,25,10,13
0,2,-71,-128,-69,-29,-24,8
-6,8,55,0,46,25,31,-16
13,7,-37,8,-25,9,-5,4
26,9,102,-25,11,-19,11,21
-13,-5,6,24,-19,-14,-38,-22
-11,-20,-34,-15,-6,2,-2,-8
-2,-3,-12,-25,-38,-34,-31,-5
13,15,85,5,-22,1,9,-2
3,30,31,30,23,13,-2,-5
-1,-25,-100,-20,-67,-20,-5,13
8,5,111,-7,126,60,37,21
-3,9,-28,80,-118,-31,2,-2
1,5,56,-29,-10,25,12,2
-7,-5,-60,-44,62,-28,-5,3
2,-1,109,40,-2,6,0,2
-16,-20,-128,-9,-128,-46,-13,-11
-3,-18,64,96,106,77,14,-9
4,-1,-128,-128,23,-24,-3,5
-1,11,121,54,21,-17,-38,-18
-4,-7,15,-69,2,-17,-2,24
1,-12,-126,33,-128,15,4,-31
7,35,127,45,22,6,1,3
-11,-22,-109,-10,-6,5,-16,-18
1,2,-91,-56,-5,-3,-1,7
-6,-7,64,-6,-37,-13,-9,-2
-8,-12,-88,21,11,23,-6,-19
19,11,4,18,13,4,-1,10
-1,3,1,-60,-21,-9,-1,3
-3,3,-10,-3,-26,-34,-16,8
-20,-4,-4,17,30,33,48,-3
16,-3,-1,-32,-36,-9,-45,-34
18,-17,-51,-9,-40,-37,-2,32
-5,19,127,-22,-17,-1,-3,0
-8,11,-66,-10,-13,-24,-32,-9
-14,-1,117,47,35,19,28,-3
-5,-10,-27,-42,-1,13,10,-15
3,-15,-106,-29,-10,0,-1,7
-13,-1,103,18,43,20,-11,-14
-11,-2,-4,-1,23,-88,-53,-15
7,-4,-2,52,127,118,47,14
2,10,43,62,-128,-30,8,0
1,1,-3,1,39,-7,-5,-7
-7,-13,-6,-45,26,8,-12,-13
1,23,127,25,10,-6,9,9
1,-9,-101,-55,-12,-29,-25,18
-14,-7,98,-7,-52,7,1,-38
-4,-9,-44,68,-48,61,20,-8
-1,2,-36,7,24,-11,-10,-10
-5,25,127,22,-2,14,1,-7
2,-2,-25,-83,-102,-42,-7,8
5,-29,-101,8,9,8,-1,11
0,11,34,2,-8,11,1,0
-9,-11,-15,-34,6,0,19,3
-5,9,15,14,-3,2,-11,-17
3,-6,1,-4,-14,-11,-17,-1
2,-2,29,21,15,13,-7,1
-4,14,-16,68,10,-24,-27,-8
-10,-8,-1,-116,-10,15,5,-10
6,0,-4,-12,-6,-3,-2,-4
1,-4,-37,9,15,-32,-11,-5
4,24,72,-21,-43,-5,-2,0
-14,-19,6,-40,-19,-13,-24,-13
-5,-4,1,26,110,34,13,-4
10,22,9,54,-25,20,15,7
1,-17,102,-29,-26,-11,5,5
8,8,14,45,127,29,6,8
-3,7,-20,-34,-20,20,-3,-3
-9,-13,-41,31,33,-2,-10,-18
-12,-8,-58,-75,-77,-35,-14,-11
0,-3,35,-8,46,19,0,3
-4,7,5,-10,17,-10,-25,-16
10,-9,-56,98,-128,-33,12,17
-8,-1,40,-32,-56,-4,8,-4
-4,2,22,19,79,5,-19,-11
-2,-9,-92,-115,-62,-15,7,9
-3,-11,-74,-3,27,10,7,4
-2,-9,38,9,-4,-16,-15,-8
-5,19,62,46,-5,11,5,-8
6,-4,32,13,15,35,29,1
0,17,35,-2,-32,-18,-13,-10
-5,-8,-59,14,-30,20,0,-1
5,6,12,18,53,-6,-5,7
12,4,-20,3,-9,22,31,19
12,17,58,6,-14,-27,-46,-1
-5,-16,29,32,7,0,-1,-1
-5,-14,-128,-59,-29,-20,-7,-3
-1,6,8,37,53,49,40,4
-5,-1,49,88,-39,-7,-4,-9
-1,-4,-22,-73,0,-31,-13,-4
-10,-12,-61,1,47,1,-10,-5
-2,-14,-77,-87,-68,-23,7,11
-1,2,112,127,77,24,10,-4
-2,2,-32,-27,117,8,-7,-9
7,13,16,106,-35,39,43,17
-14,-20,-89,-38,58,4,-16,-19
-15,-20,-99,3,2,-1,-7,-5
1,2,-30,-26,-16,-18,-3,1
-3,-10,-76,-31,-13,-17,-12,-5
-7,-12,43,67,-33,26,12,2
-9,-4,-33,-98,-2,-20,4,-8
6,25,127,14,-10,-3,8,35
-11,-10,-78,3,0,9,0,-51
-5,6,12,12,-4,10,-15,-15
3,-2,119,80,51,18,2,10
0,1,-60,-107,56,25,-10,-5
3,9,-15,92,17,-13,12,-9
-7,-19,-37,-128,-51,-29,-7,12
-2,9,-64,33,4,-5,-6,14
-5,-18,-31,-18,-2,-11,-7,5
-2,-1,-47,-37,-22,-14,-3,8
-18,-8,-52,9,84,6,-29,-48
-7,-8,82,52,-128,-18,2,-9
1,-5,-10,-120,46,-7,-1,3
-4,5,-5,94,32,25,24,3
-8,-11,-22,-60,-1,13,10,6
-4,-14,-53,-4,11,-19,-20,-16
-3,17,8,-54,17,-3,-11,-11
-2,-18,-47,-33,-104,-22,0,5
-2,20,64,69,-98,-11,0,-14
-4,-20,-51,-3,127,62,34,11
10,-14,-81,-107,21,-2,-12,9
8,18,22,-54,35,22,-3,2
-13,7,-26,109,-78,-47,-2,2
-21,-13,32,-82,119,35,6,-12
20,8,-21,24,35,7,0,10
29,-11,46,-35,-6,-5,-18,25
-22,19,10,24,34,26,-9,-37
-3,-25,-15,-1,-46,5,37,32
3,-9,12,-7,-25,6,12,-14
-9,-3,-20,51,-14,-5,-9,-8
4,-6,-57,-128,-25,-29,-24,3
-8,22,-47,64,5,20,3,-10
-19,5,91,-120,0,21,12,-41
8,-12,-70,0,28,5,19,24
21,17,127,91,93,4,-12,20
-2,-10,-128,-56,-128,-53,-12,3
-2,-11,127,95,48,25,-4,-17
-10,-2,-29,-7,59,20,6,2
-8,0,0,-10,12,-6,-3,-3
2,1,-19,32,-60,-9,3,-3
-5,5,30,-31,85,21,-12,-5
-20,-11,-61,93,-121,-49,3,-7
-10,-15,23,14,97,17,-15,-27
26,12,64,37,45,-11,-20,8
-4,-8,-38,-82,-40,3,10,8
-12,-7,-1,73,21,6,-5,-5
-6,10,-2,-31,22,-17,-10,-2
-10,-12,-62,127,83,54,18,-2
-12,-7,-42,-17,-6,-12,-1,-11
0,-10,15,4,90,46,1,-7
2,-10,27,40,-87,-83,-14,1
1,-8,8,-82,-116,-10,-2,10
-5,-4,-13,58,46,7,-12,-20
3,-7,9,-45,-12,-7,-19,-11
1,2,29,-5,-5,29,9,4
-14,22,4,45,-30,-29,-19,1
19,0,-38,-103,21,18,16,23
23,-12,-54,28,21,10,21,16
-6,-3,2,-29,17,1,-2,-12
-4,-4,10,28,-53,-8,5,3
-3,2,-45,-7,-7,39,19,2
3,8,55,26,-5,-38,-22,-3
9,22,75,-22,3,3,16,23
-5,-11,-9,22,19,-28,-25,-16
9,3,-33,127,127,56,19,10
-19,4,91,-20,24,26,-10,-15
-8,-14,15,108,74,3,10,-2
-15,-15,-15,15,-12,-6,-3,-10
6,-2,-52,42,39,-10,-11,3
-5,-14,-72,-55,-96,-15,1,-7
5,7,-50,-8,-90,-22,-8,12
3,-12,67,45,37,48,37,-3
9,-6,-58,-72,-22,-22,-16,15
-4,4,96,43,27,-5,-10,-9
-13,-22,-95,-33,-100,-17,-9,-12
-11,10,118,101,86,-27,-21,-12
-3,1,-37,97,40,40,23,4
14,-13,-27,-50,-44,-5,5,23
-14,9,-4,-6,-44,44,6,-25
-1,8,-118,27,-3,-51,-8,1
26,-10,114,-71,0,8,4,16
-1,21,-70,55,11,-16,0,3
-1,1,80,-24,56,15,-8,-16
-10,-25,1,-19,-50,-3,4,-8
-5,11,-5,1,59,-10,-19,8
-23,-31,-39,31,-55,66,21,-31
2,9,-10,27,49,-2,-2,0
5,6,-80,37,-23,-1,-1,0
-5,-1,40,-126,0,-46,-44,1
8,5,87,71,-12,12,14,-11
6,-2,31,31,-28,-9,-8,3
-6,9,-35,-25,48,36,16,-3
-9,-7,-51,26,-23,-21,2,3
5,-11,-7,-27,38,24,36,9
6,17,9,-110,-46,-24,-15,-5
-11,-26,-75,-55,38,7,-16,-9
-2,15,9,46,15,-5,-12,-20
-8,-18,-92,-9,-52,0,2,0
22,23,74,78,127,53,32,28
3,-18,38,36,-8,-28,-9,16
-14,-7,-29,-115,25,-3,-19,-22
-6,-12,7,7,24,-3,-9,-9
5,-10,-25,3,-128,-38,-8,4
-8,-1,-92,9,23,26,15,-5
-1,33,127,80,23,-71,-45,-10
-4,-5,-95,-113,-128,-1,31,20
-27,-7,-28,112,14,29,-4,-48
-2,-22,-63,-27,1,24,-6,-15
42,-4,52,-20,9,-26,2,35
-8,5,5,-66,117,-8,-24,-18
2,15,16,121,-128,-27,37,29
-4,-15,-87,-73,-64,-33,-28,-23
1,-6,-2,-54,17,5,-31,-6
-8,8,81,-7,17,-30,-28,-13
-3,2,-128,-44,2,24,29,2
0,-1,54,-13,-3,-17,-7,13
-20,-17,80,23,-3,17,15,-58
3,-26,-128,-36,-38,-13,-6,10
5,31,127,48,34,2,-14,10
6,-8,-50,-71,-22,-13,-10,9
-8,-12,26,45,-44,-25,-1,8
-6,-2,0,119,10,-15,-12,-14
-9,3,-28,-128,3,20,20,-2
-5,-14,0,13,4,-31,-25,-10
16,8,-83,65,-105,19,25,28
7,0,86,32,38,9,3,7
-12,16,3,17,4,-10,-16,-19
-7,-4,50,-19,4,-10,-13,-38
-14,-34,-71,-126,-72,1,7,-7
-8,7,-27,16,-83,-26,-7,-8
16,-22,-101,47,-128,-36,-3,9
13,-2,40,74,68,29,2,11
-4,3,-66,-9,40,13,9,-7
5,-3,-11,-47,-114,-24,9,20
-16,-5,-20,14,-35,49,10,-24
-21,-13,10,58,-6,-65,-32,-4
5,8,17,7,-112,-37,-5,-14
15,5,127,122,61,17,0,3
-9,27,-22,-128,-12,35,-5,-7
8,-7,-105,-20,-6,-19,7,0
4,-10,-15,6,-22,-11,-2,37
-10,-10,-27,-2,-17,9,-10,-26
0,-14,-8,16,13,-17,-17,-8
10,-8,-43,-20,-4,-40,2,35
-27,-18,-14,-27,-5,44,-21,-70
4,16,35,42,-16,-48,-26,2
-13,0,36,41,77,30,12,-6
10,-11,-24,-70,-46,-10,14,25
-4,2,-31,-15,34,20,15,-13
-4,-4,50,11,-46,-11,-3,-1
-13,-1,15,28,2,-6,-14,-6
4,4,-12,54,-11,12,5,-3
7,-1,32,127,31,22,22,13
-6,17,8,-128,-33,-24,-20,-1
-4,-6,39,127,-27,-16,-9,-1
14,1,-18,-128,15,-5,6,17
-2,-17,-90,-2,-44,3,0,-17
2,0,-98,-42,38,-13,-14,4
-17,-7,-9,-20,124,23,-5,-25
-2,17,127,-14,-128,-49,-4,-8
-8,10,23,116,21,2,4,-8
-7,-20,-114,-80,-21,5,20,12
-2,8,-75,11,-7,-10,-11,-4
6,5,127,-53,-7,-4,-19,-8
-9,15,-5,105,44,-13,-4,1
5,-31,-49,-128,-84,-19,-8,-3
11,24,127,127,-72,34,16,0
6,1,-128,-128,44,-8,0,-15
-11,-1,-26,-29,-12,-18,-15,-5
14,-6,71,40,-2,5,10,19
8,14,-24,17,-11,-8,24,28
-5,-2,-14,21,15,-13,-11,-8
-16,-1,4,-6,-19,15,-8,-31
-2,7,-49,-23,33,-10,18,24
-13,-13,81,9,-31,19,6,-16
29,-1,-57,-58,-68,16,22,26
28,-6,-6,65,127,50,27,34
-15,-3,2,1,-128,-7,12,-4
-1,13,-19,9,49,-3,-16,3
-5,6,6,-66,77,1,13,-12
10,25,-12,105,80,69,29,24
-6,-46,22,4,-110,-60,-8,-15
7,26,127,-29,37,65,30,16
-2,-2,8,37,20,-13,-24,-8
0,-16,-128,-7,13,2,14,4
0,26,127,65,-38,-14,-12,-2
-14,-3,-6,18,71,17,-10,-26
-6,-2,-11,-95,68,-9,-10,-11
-10,-22,-118,127,-128,-61,-7,1
4,-7,27,54,127,57,22,13
11,9,-43,30,2,0,-3,9
1,0,8,-128,7,8,7,-1
-5,-11,-66,-121,-19,0,-12,-2
-3,-10,61,22,-17,-11,24,16
10,14,-26,-2,9,19,0,-1
4,-3,-7,8,-25,-13,15,6
-3,8,26,16,-1,-8,-6,-2
-25,-19,-25,-22,-55,-16,-21,-34
0,13,21,10,40,50,69,48
19,-7,-8,-8,-57,28,-8,-5
7,2,-54,7,-9,-43,-26,8
-11,-1,28,81,-17,-22,-29,-21
-6,6,-13,-96,-14,-4,17,-1
10,18,9,17,50,17,12,32
-11,-22,-59,-45,-40,-28,-17,-30
9,8,-15,84,64,34,5,11
2,9,107,-15,109,15,6,15
6,4,-7,6,-128,1,25,32
-19,-8,-41,19,-22,-35,-43,-34
-5,-26,-47,101,21,32,11,-10
1,20,127,-1,-57,-20,-10,-5
1,-1,-23,-128,45,15,6,-5
3,1,13,21,9,-53,-32,-1
-6,-17,56,-1,-128,-31,7,4
8,18,-48,23,127,63,24,10
-2,16,127,44,65,6,-1,-4
-9,-4,-69,65,60,39,7,-12
9,-21,-128,-128,-103,-96,-34,14
-8,16,127,49,38,31,-3,-35
-11,-7,27,-14,-21,-37,-38,-14
16,3,-48,-37,-10,9,29,31
-22,-7,-5,60,-40,-1,-11,-26
1,-7,-14,26,-26,-16,-10,0
-25,-11,-1,-48,-3,8,14,-13
3,0,-23,5,-96,-9,1,25
35,-2,-32,25,34,22,-3,-1
2,23,70,3,-10,-45,-26,-5
0,1,-31,-4,3,16,17,13
-4,5,2,5,-6,-5,-6,-4
3,-5,23,-14,-4,10,8,13
-18,-8,-5,-23,4,-19,-47,-41
-3,1,-72,53,-54,11,2,2
0,8,127,19,32,-43,-17,-3
-2,-24,-128,-128,9,-27,-16,-30
3,14,-27,29,127,54,20,32
-10,-13,127,32,-43,4,19,-23
23,39,86,127,127,65,18,17
-6,-9,-45,70,16,-9,-19,-7
-8,-9,-128,-128,37,-8,-9,-9
-5,-15,81,-1,35,10,-11,-7
-4,3,17,24,58,-11,9,-3
10,-9,-128,-20,-34,9,17,17
-1,0,32,-10,-85,-21,7,2
6,0,21,124,127,58,11,-2
-6,-15,32,-114,30,2,-11,-8
-1,33,127,56,22,4,-5,-4
1,-13,-23,-15,-25,-38,-22,2
-11,16,50,-56,-19,8,12,22
-12,-20,-81,37,-11,-38,-23,-28
18,-8,68,-63,-13,4,10,-9
1,17,-16,16,-19,-12,-15,-8
-10,-3,51,5,4,-19,-28,-18
-6,-17,-28,18,-19,-1,19,11
5,1,0,-16,17,9,19,2
-6,-1,17,46,-3,-24,-20,4
-5,4,13,-67,-15,-10,-14,9
9,4,-66,35,-36,4,36,33
-14,7,52,-22,94,-8,-22,-21
12,2,-42,52,81,46,11,12
-7,-25,-128,41,-105,-49,-16,-9
2,-6,122,102,-38,21,16,-3
-7,-8,56,-29,76,8,-9,-36
1,32,-19,-62,20,4,8,19
-1,4,-2,30,-50,-28,-17,17
14,-3,-56,69,-24,0,29,28
-21,-20,108,92,-10,-5,-4,-14
1,-8,-57,-44,127,16,-2,-3
-14,-8,-5,-38,-128,-73,-27,-18
5,19,-4,102,127,72,17,-7
-5,-13,25,66,-58,-6,-5,-6
15,20,-53,-128,-36,5,12,28
3,-18,-17,87,-5,13,15,7
-16,-10,0,-17,-3,10,-4,-29
-13,-8,-8,25,69,10,15,-5
-10,-14,-38,-35,-64,-33,-28,-20
23,14,-6,46,0,8,8,15
-1,3,9,-120,-35,-8,40,40
18,31,35,110,2,1,15,18
-7,-31,-72,-128,5,20,-33,-21
-21,-12,23,9,-9,-32,-33,-14
-16,-9,-4,23,-4,-1,3,-12
17,2,14,18,-14,-11,0,26
-12,-16,-5,22,-12,4,27,-21
9,9,23,80,-13,-1,-17,0
-3,-14,-63,-105,8,-15,-19,30
1,8,-4,-23,-36,-24,-7,6
-10,-1,5,48,14,34,6,-12
-8,-1,0,-110,-7,-14,18,9
-12,-27,-48,123,24,-2,-14,-27
-8,-2,-28,106,-11,-3,-12,-30
8,3,64,43,-36,-5,-11,7
13,18,50,124,7,18,2,21
-12,-10,4,-5,41,-17,-17,-22
6,-10,-93,-17,-69,-1,12,8
-14,8,-34,96,8,14,9,-5
-12,19,47,-128,2,-51,-16,-21
-6,-34,14,108,127,112,14,-2
25,13,4,23,-36,2,13,37
-10,-14,-31,-48,15,-13,-26,-25
-7,-9,-11,-7,-29,-11,-19,-11
-15,3,-82,57,16,-20,-26,-20
-10,-17,58,-69,-39,9,32,-3
-3,-30,-57,4,55,-14,-12,-9
6,17,122,7,-24,-11,-14,16
-10,17,14,21,39,2,-14,-12
8,1,-77,-86,-70,-19,-10,7
-4,-15,-10,23,-60,63,35,6
4,20,-44,-93,39,-12,-8,0
-1,-48,-36,1,-18,-13,-18,5
-14,-13,-128,-65,-21,-5,2,-4
-9,31,127,17,1,7,5,-17
2,12,32,127,-14,-3,6,-7
0,-33,-128,-128,-35,-5,-3,15
-6,0,63,-28,-24,-32,-27,-13
-7,-1,17,-80,-70,7,-6,-13
4,-21,-4,96,36,30,16,9
18,31,54,127,78,2,-3,10
4,-7,-40,-112,-39,6,6,2
-7,2,-66,8,14,-15,-10,10
-28,-16,-6,-7,38,39,-9,-54
-3,11,12,-3,-74,-41,13,-10
7,-7,13,62,-99,-2,9,14
3,-14,-48,62,25,9,2,21
-12,-8,-1,123,-20,-12,-19,-31
-6,-9,17,-108,4,-33,-31,-5
-1,6,-5,-48,-79,-21,1,7
-8,11,21,69,54,9,11,-8
23,28,35,31,68,8,42,47
-16,-45,-55,-52,-122,-26,-43,-52
15,1,-35,-70,-53,-12,-3,24
-2,27,115,43,15,-16,-19,-15
-7,-3,-59,-44,-16,-5,9,2
0,-23,-38,-3,2,8,20,16
8,20,-7,16,29,0,-1,10
-3,6,-29,-44,-58,-5,-4,-2
-2,-7,43,127,27,-9,-2,0
-16,-17,34,-128,33,13,-13,-12
-3,-17,-9,11,40,17,4,-2
21,-1,-128,-47,19,-10,14,19
5,-1,58,4,2,9,-1,3
4,12,28,127,18,-2,-1,4
-3,9,17,-128,88,24,6,-7
-9,-6,-72,-7,-37,-14,-19,-10
-3,5,122,127,-110,-61,-32,-13
2,-20,-128,-128,127,51,21,1
-6,-3,-112,27,29,-5,-14,-8
-6,-3,79,51,8,23,2,-3
2,-10,7,9,-31,-21,-8,1
-10,9,12,28,-36,40,7,-25
34,33,94,31,39,44,71,84
-5,-16,-11,22,-1,-21,0,-14
11,9,-9,2,121,41,-7,11
-7,0,-10,-30,1,-22,-10,-2
-10,-11,4,-11,8,6,1,-6
-7,0,-10,-4,29,3,-15,-9
-10,-15,-19,-30,-70,-43,-27,0
28,18,25,27,28,56,35,15
-17,9,-16,27,7,10,22,-4
-6,-8,-50,-128,-41,-29,-10,1
21,-6,0,20,14,-30,-31,0
-16,-12,26,0,4,-3,1,-11
-8,41,93,68,16,2,-3,-5
10,-8,0,41,15,44,61,17
4,8,25,-128,-8,5,14,15
-6,-16,-61,-100,-21,-14,-13,-10
6,18,32,9,55,24,11,6
-6,12,127,127,-89,-1,1,-8
-7,8,45,-128,6,-25,-10,-8
-2,-19,7,59,43,6,2,8
-3,-12,-13,6,127,-2,-33,-11
0,-9,-101,-19,-128,-80,11,-2
3,21,127,127,127,103,22,2
-2,2,-11,-128,-44,10,15,12
-7,-5,-13,15,-14,18,10,-9
-9,-1,-27,11,37,-72,-37,-22
15,-4,-128,-54,-103,-12,-1,14
17,19,127,17,127,26,-9,-4
-1,6,-19,15,19,5,9,28
-8,-12,-41,13,-9,3,-9,-7
17,25,45,-1,-23,27,43,53
-28,-43,-94,-29,-15,-7,-65,-77
0,-7,16,-13,-17,-34,-39,-20
-3,-15,-3,27,-31,-12,-8,-9
2,0,3,-128,-21,-22,-9,-4
-5,-13,-102,5,18,11,8,4
6,35,108,95,-10,14,21,13
6,10,90,-128,2,17,7,11
7,1,-70,127,36,3,-17,-7
-5,3,-60,-128,127,-5,-8,-4
7,17,96,47,-128,-68,10,24
22,24,127,127,123,56,33,15
-7,-9,-19,38,93,-7,-12,-9
-18,-8,7,-20,-36,-31,-25,-16
-3,2,-107,98,-6,-12,4,2
-6,6,127,3,-45,-11,-12,-12
-3,-15,-99,21,-18,1,1,0
-2,14,-4,127,22,5,-2,-7
-11,-5,-22,-128,-71,0,-6,-8
10,-3,12,-18,0,-15,-8,4
12,-12,-64,-67,-43,-15,4,16
1,1,-17,27,-128,-3,-6,-15
-5,7,24,27,86,28,33,18
-17,-16,-85,0,-40,-44,-46,-18
9,-4,28,-58,-4,5,22,9
-9,-3,10,43,18,-8,-5,-12
4,3,-32,-2,23,25,4,-4
-8,10,59,-16,-26,-20,5,-25
14,-4,12,6,-16,24,38,31
53,12,1,-16,-76,-59,-45,69
-12,-9,94,-46,-27,-49,-41,-13
11,10,-128,-104,-64,9,27,21
-5,-8,127,127,-49,-54,-30,-17
-7,7,82,-81,1,0,-1,-10
-5,10,9,127,-52,-5,6,-6
-19,-28,-76,-11,-12,-26,-19,-9
-4,-42,-128,-44,-128,27,47,5
16,90,127,127,97,4,-20,-12
-1,-4,20,44,127,31,1,-2
-4,-9,-128,2,7,3,-5,-2
-15,-26,-32,-36,-17,-15,-3,-10
-9,4,102,127,-37,-18,-9,-7
2,16,-16,101,5,-5,-4,-1
-1,-6,-17,-128,39,-34,-11,9
-7,-22,-128,-31,-128,-7,17,-3
-7,-31,66,120,97,7,-9,-21
0,-4,63,-50,28,-10,-16,5
-14,-6,16,0,-10,-9,-18,-32
0,18,-21,0,2,24,9,-16
16,-3,-33,13,2,-22,8,17
5,10,22,19,1,10,13,11
-2,14,77,-10,2,28,30,16
-6,-16,-44,-21,-34,-21,-37,-18
-8,-23,-42,-19,-29,-17,-13,-3
3,1,-3,-1,0,0,-9,1
-2,4,-7,54,7,12,6,0
-10,-2,-7,-71,-9,0,3,-20
9,4,3,14,10,-17,3,11
13,19,45,36,-16,2,7,38
-30,-19,0,4,3,0,-14,-36
-8,-8,-29,-57,34,8,14,-13
29,-1,21,10,-102,3,15,25
-6,-13,2,22,15,-12,-7,-6
6,7,-85,56,127,27,-8,5
9,30,-128,-82,58,48,44,16
-18,-8,127,127,-128,-35,3,-13
-7,12,120,-61,127,1,-22,-8
9,8,-20,41,1,19,15,25
-12,-9,-6,-9,32,17,-3,-27
-3,-34,-89,5,3,-6,4,4
3,3,-5,28,65,-16,-9,5
3,7,-25,-32,-26,12,5,7
21,-4,23,47,-128,-39,-2,30
-12,4,-54,-32,127,34,8,-20
-13,7,95,40,54,-3,-27,-21
-4,-20,-23,-37,-20,6,15,20
-7,-2,21,19,12,20,-8,-29
3,-6,-20,-29,-30,-7,5,-4
-3,-9,-41,-10,-16,-4,8,11
0,7,7,1,4,-7,-7,1
-8,2,-14,-8,9,-23,-6,-6
-5,-12,-72,-19,-14,-14,-4,-10
3,12,63,-9,-11,-7,-2,5
17,7,-20,5,0,4,10,17
0,0,-16,28,7,11,8,8
-13,-6,33,-40,-12,-10,-4,-15
-5,-14,3,42,-39,-11,1,-3
1,4,-1,63,31,19,9,-7
1,3,-5,-92,25,-15,-1,4
-4,-13,-77,-58,-72,-2,3,13
-5,13,127,127,127,22,-19,-12
-9,-21,-65,-38,-107,-20,11,-10
4,9,89,71,100,7,1,-2
-4,8,-81,22,86,-1,-20,-17
-16,3,22,-128,-128,-31,18,22
14,-14,127,127,2,5,-11,-20
16,-12,-108,-128,21,-15,-25,8
-3,9,-11,13,17,15,-1,4
-24,-32,-100,-32,-23,-22,-14,-45
17,38,114,127,107,73,89,44
-21,-37,107,0,-64,-25,-15,-25
16,33,-31,-61,-2,-13,-21,24
1,24,45,63,39,21,-13,-6
-26,-35,-45,-15,-53,-36,-14,-2
-3,-26,-101,-3,-8,-5,2,-17
-4,-13,36,10,-5,-32,-19,-4
-9,-6,-19,10,-9,9,-5,-7
4,1,-114,-36,19,-12,-2,3
0,3,127,54,23,-13,-17,7
-4,7,-1,-69,-8,24,22,-25
6,12,111,43,39,16,-12,-2
-5,-9,-49,38,8,-2,-5,-5
-12,-11,-23,-5,15,-10,-15,-11
-5,-14,-66,-78,-35,-14,8,5
-13,1,-37,64,-40,-12,4,-12
-16,3,111,37,61,38,5,-18
20,-8,-2,4,-38,-31,-19,5
-5,-6,13,-25,7,9,12,-2
-7,-6,-13,6,14,-9,-14,-10
-5,1,-16,-20,7,-8,-6,-4
-3,-8,-113,-8,33,6,-2,-4
-1,23,127,-88,-10,-18,-8,-5
3,-12,1,5,-128,-25,-14,-5
20,15,-99,45,127,13,30,40
-2,-4,127,-60,-41,-23,-10,-33
-14,-22,-55,82,75,4,-28,-20
1,-10,-27,-126,-47,-20,-31,9
-3,-1,10,-22,23,19,-1,-2
10,3,-48,-10,-17,-23,10,0
-3,-4,6,14,-51,-15,2,10
-9,5,43,38,-24,-33,-27,22
12,20,-69,-74,2,3,8,7
-32,-13,63,-57,-28,-23,-49,-73
1,-9,48,32,8,-15,-2,8
1,-1,-126,-45,6,-1,-5,2
3,13,74,81,40,40,23,-2
2,14,-95,28,-27,30,1,-2
13,-24,125,105,29,-48,-18,15
5,14,107,6,-23,-12,4,5
-7,-11,-113,-12,-10,-7,-7,-6
2,17,127,4,-13,-1,-2,2
-14,7,-29,-39,63,5,-9,-15
-19,-12,-99,24,-128,-39,-23,-20
26,-8,-2,63,127,45,24,22
-6,26,59,77,127,49,8,-14
2,20,-47,-35,3,-25,-21,7
-14,-12,127,125,-28,-9,-2,-23
-5,-15,-65,-40,-29,-16,-16,-8
2,-6,-117,-37,26,6,-3,0
-4,6,125,-27,-55,-28,-19,-14
-3,-8,-19,6,29,19,21,13
-3,-18,-41,-5,-8,-16,-11,5
-11,4,61,5,-99,-20,-7,-31
1,-4,-22,2,12,26,0,-4
-12,-3,-24,-11,24,10,0,-18
5,-5,6,-50,-18,-18,12,12
10,7,3,21,20,14,10,27
1,-8,-50,-16,-8,8,-2,7
-14,-9,23,33,1,-16,-16,-14
18,24,101,-17,3,3,11,30
-5,-9,-10,-26,-34,-9,-17,-39
-3,-17,-37,-12,-4,3,-12,-13
-5,8,-22,-51,-21,-45,-25,-15
-5,4,-58,53,-4,-8,-8,-2
-1,-17,-105,-128,14,6,-3,4
2,12,127,106,-46,6,1,4
-20,-5,-24,-37,69,-10,-14,-20
6,15,12,-84,-40,-19,6,3
1,-24,-45,118,-60,29,23,13
-8,24,109,34,127,-2,-13,-8
-5,-8,16,-65,-128,-39,10,5
26,-4,-56,56,127,15,-13,14
-8,15,91,-6,-38,7,6,-11
-3,1,35,54,-33,-12,14,17
-19,-20,-47,-116,1,-1,-23,-39
3,2,-50,78,58,21,-16,-11
-8,-5,-26,-128,-7,-16,-18,-13
-1,-9,-4,127,-10,-16,-5,1
-3,-15,-33,-33,17,-16,-6,5
2,0,2,13,13,12,4,2
0,6,-14,-2,-19,16,25,5
-19,-5,4,-34,-67,-38,-37,-27
17,21,34,45,26,-16,-14,10
12,-5,-7,-38,-14,44,29,22
4,-24,-9,20,-1,-26,-24,6
-24,5,10,-11,-8,0,-15,-40
4,8,4,-14,-4,-5,30,39
-4,-11,-40,11,-14,-11,-15,-9
9,6,50,-4,-24,5,5,21
9,-1,-13,-14,-13,-9,-15,-3
-5,19,29,28,11,4,4,-5
-17,12,32,-55,85,0,-11,-14
-3,-14,-19,36,-83,-3,11,-4
-3,-10,-56,-11,18,18,10,0
15,21,38,118,63,2,-1,20
-13,-36,-104,-128,-84,-29,-8,-22
5,38,121,51,56,48,24,13
-11,-16,-20,69,43,-12,-34,-20
-7,-8,-87,-78,-28,-11,2,-3
3,3,127,84,24,2,-6,5
0,-5,-128,-49,-112,-2,41,17
9,-17,67,8,54,10,5,5
10,26,30,6,21,-4,-5,10
-16,-16,-111,-75,5,-8,-21,-27
-17,13,95,-8,5,-34,-31,-12
-4,10,73,80,0,7,33,16
32,-26,-121,-128,61,26,10,20
8,2,-33,-30,13,9,-6,-1
-13,3,42,-37,-27,-28,-2,3
1,-11,-43,-8,29,2,4,-12
-3,5,-22,-8,-53,3,6,14
-3,19,9,48,3,-24,-10,-2
-16,-20,-41,-49,-47,-31,-32,-16
-11,-16,16,-19,-42,-11,-15,-24
-3,-7,-20,4,-30,0,17,24
-3,-4,-3,13,10,4,-6,-9
1,3,37,19,15,6,-5,-9
-11,12,18,6,1,66,10,-25
8,-10,-93,-92,16,-77,-31,9
20,26,95,35,-84,-4,20,11
6,10,-46,36,38,8,-4,2
3,-4,80,97,21,5,-6,1
-6,-22,-27,-43,-19,-6,-11,-3
-10,14,-82,-55,-5,4,9,-7
-3,-17,-16,14,-11,-22,-15,-3
8,-1,58,-102,5,25,19,15
5,13,-10,73,127,19,6,12
-8,1,-128,5,-86,-3,4,-24
-5,-36,127,-36,43,24,16,-1
6,19,49,-59,3,3,11,10
-6,-5,-40,-108,2,-10,-11,-4
-5,-16,-107,-50,-43,-14,-23,-15
-4,-4,16,-7,-2,0,3,-3
-17,-6,-8,55,19,-13,-4,-21
-7,0,-87,-128,-82,7,6,-3
24,8,0,62,15,-58,-41,8
-13,-4,-17,-128,-83,-30,-23,5
0,-13,-53,40,-23,-4,-1,-49
7,-9,-16,48,115,40,-3,-4
-12,-6,-16,-7,10,2,-4,2
-13,-19,-13,5,-4,19,-1,-9
-10,8,19,15,-6,-28,-14,-7
-4,-2,-58,-48,-46,-32,-6,-1
13,8,56,27,8,9,9,14
6,22,23,-25,-18,9,5,5
-1,-9,43,-5,58,24,32,8
-15,-8,-43,4,2,-4,0,-14
-12,-29,-40,98,16,20,-4,-9
-4,16,127,-83,-4,-14,-9,-4
4,5,67,44,16,-17,-12,-4
9,-21,-55,-4,40,16,24,13
3,22,-66,68,27,-22,-21,-7
8,6,1,-128,-115,-23,10,8
-9,-24,37,34,95,25,3,-1
8,4,-10,49,125,38,21,12
-7,27,113,7,-4,7,-6,-16
-11,-3,67,59,96,34,37,-13
-3,-16,-19,-17,-48,-26,-33,-5
18,3,-28,28,22,3,16,47
7,11,-46,-36,12,-2,-5,-18
-1,6,42,-1,-38,-9,-1,-3
6,-8,-56,37,54,34,17,10
-10,8,53,51,25,4,-8,-7
-11,6,-31,-12,5,-31,-44,-6
-18,-12,-81,-28,41,41,32,2
-3,-29,-23,71,-67,-3,-7,-15
50,-12,31,-115,16,6,3,35
3,34,55,34,13,7,-1,-1
-3,20,7,-21,7,-5,-3,-7
-16,-7,5,127,31,0,-3,-11
13,4,-44,-70,-4,21,20,12
-15,-25,-7,-106,-28,-41,-40,-24
-3,0,-33,12,70,15,20,17
-9,-12,-3,49,-38,0,-13,-16
2,-5,56,-22,0,2,-6,-3
11,28,26,37,95,32,11,12
-7,7,32,-12,8,-4,-9,-8
-7,-24,-33,-36,2,-5,-5,-1
1,-5,-55,-9,-27,-12,11,14
3,14,66,-4,36,31,11,-2
-3,-13,-86,-10,-92,-34,-25,-6
11,22,127,5,-25,0,2,7
1,9,-68,-10,-24,9,4,0
-12,-17,-49,-30,19,-10,-12,-4
-13,9,95,127,41,17,12,-8
-20,-32,-55,-128,-31,-26,-20,5
4,6,-16,-17,-16,20,9,-20
31,12,-38,35,-14,6,9,30
-6,-1,1,6,-13,7,22,7
-19,-1,71,127,59,3,-12,-16
-4,-21,-19,-128,49,1,-14,-4
-10,1,99,95,-49,7,0,-15
11,12,-29,-6,-16,-7,-10,9
-9,-26,-46,23,31,11,-7,-9
1,-7,-128,-39,-7,10,20,6
-5,25,127,-22,-30,-31,-15,-4
2,-14,-63,88,78,31,7,8
-4,-12,0,42,-48,-2,12,1
-5,13,-52,-115,64,8,0,-8
1,14,30,63,-67,-21,-2,-3
3,-15,46,100,13,-2,-5,-5
3,-14,-102,-53,-10,27,8,1
-1,5,-56,-21,-51,-26,-14,-1
3,-20,47,-17,1,0,-10,-5
-3,10,60,-5,35,8,-6,-3
-11,-18,-102,-36,22,13,-7,-13
3,-3,62,11,-65,-22,11,-6
10,36,27,24,41,7,5,10
10,6,-22,-23,20,25,10,13
-5,-1,7,13,11,1,4,-16
-7,-22,-27,-111,-17,-21,-16,-11
-3,-2,-17,-19,-108,0,11,6
-12,-1,-21,14,127,19,-12,-19
-8,5,48,46,-67,-2,4,-17
13,-18,-89,6,20,5,35,69
3,16,63,-28,-4,-5,-40,-21
46,7,35,66,-16,-8,3,37
1,0,-41,-128,-52,-23,-9,-6
-7,8,-31,100,24,-1,-5,-6
-12,-6,26,-16,8,16,11,-11
-3,-26,-47,30,-46,-2,11,3
-1,-5,-71,-128,16,21,5,-5
-10,22,75,41,-32,-15,-12,-21
5,-9,22,-92,111,13,16,8
-11,2,-62,-7,-128,-41,-24,-16
19,30,-60,127,61,29,20,16
-9,-22,49,-23,127,14,-5,-20
-6,-28,-38,26,107,4,-9,1
7,9,-8,9,-6,3,-14,9
-18,-24,33,-97,-75,-34,-23,-20
-21,-6,43,50,-8,-9,-3,-31
7,-4,-29,30,26,17,13,8
-1,1,16,-45,60,6,-8,-5
-6,-1,-50,-16,-102,15,13,-4
10,44,127,114,57,-1,17,31
-2,-34,-95,-69,9,4,-8,-34
10,-9,6,36,29,-10,-35,2
-2,9,-2,-52,0,6,-6,4
0,0,-45,23,-7,-43,-8,4
-10,-19,7,28,-12,-7,1,-3
-4,9,75,-31,-2,-7,-9,-7
-2,3,42,-4,0,7,1,-1
-20,15,50,1,-20,-17,-28,-29
-23,-37,-128,-51,-59,-10,19,32
36,-1,103,15,-10,34,18,-6
16,9,-29,37,-16,-9,-16,2
-9,-17,-40,-119,61,2,-18,-12
-13,8,-87,57,-128,-28,-13,-17
-6,22,127,5,-128,-25,19,-16
2,-12,-30,-82,-20,2,6,14
8,-7,-112,-13,79,8,-7,25
-7,-1,93,0,-32,6,21,6
-15,-3,-50,-9,9,-22,-20,-20
0,-8,30,53,18,78,45,3
1,27,127,11,127,-8,-9,0
-4,-7,3,-7,4,-37,-44,-18
11,7,-72,-85,16,6,49,69
-22,-16,57,-14,-74,0,-21,-72
5,6,-20,-128,-9,-5,2,12
-8,1,-31,3,-6,-12,-13,-8
-6,4,54,2,-7,14,1,-1
-9,-7,-54,29,24,-1,-8,-10
-15,-19,56,-13,-52,-34,-1,-13
0,-6,-63,10,-2,-10,-7,3
19,3,-27,-81,-30,-4,1,30
12,23,32,95,1,-4,2,11
3,-7,-21,-8,-4,9,8,3
-4,-9,0,-37,14,0,-2,-7
-13,-12,-7,11,-22,0,6,-15
-11,-12,-65,-13,-8,11,-10,-11
-10,18,110,34,127,-29,-40,-23
-20,-12,-105,-57,-128,-47,16,1
4,-18,13,32,66,14,12,15
48,7,26,-7,-11,-6,6,38
-13,3,17,17,118,29,-7,-15
-20,-24,33,34,10,-6,-10,-15
8,-1,-18,-36,58,18,23,24
2,14,-128,69,-61,4,-15,-7
-6,15,127,-91,81,19,-5,16
-12,-9,-90,-54,-104,-37,-2,-23
6,-16,11,8,16,25,21,7
10,8,-125,93,58,9,0,-1
-2,0,104,20,7,0,-10,-8
-10,-3,37,38,15,-18,-15,-5
-2,2,-128,-61,-10,-7,-10,-7
-3,-13,28,116,24,8,0,-1
-5,-4,-57,-49,-38,4,28,-1
3,14,27,42,75,12,-1,6
3,5,-9,-4,61,7,5,5
-8,11,25,19,22,0,-8,-14
-11,-23,-9,82,-70,-8,-7,-8
-12,-14,-42,-109,18,1,-15,-5
-3,-6,-83,16,-72,-22,17,4
17,-4,121,75,23,24,14,12
3,19,16,-65,10,-19,-14,-10
17,6,-12,119,30,22,22,38
-4,-7,-8,-106,4,4,1,-5
2,7,-36,5,26,19,-3,-10
-3,-7,34,29,-53,-29,-12,-15
-10,10,-104,-3,70,1,-24,1
-21,-16,29,-61,-128,-24,27,-54
14,-14,59,102,93,34,18,10
-3,6,45,98,14,6,-9,-6
-8,-17,-51,-128,-20,-10,-6,1
-1,-3,2,-23,15,-12,-8,4
-10,-4,-40,-2,-66,1,2,-2
-16,-1,64,-23,95,-14,-33,-26
30,0,-128,-34,-128,-48,47,42
6,29,127,124,127,24,-12,0
-5,-11,-43,-26,30,-12,-25,-6
-7,-14,-30,-94,4,7,-6,-4
-15,-9,-52,20,-19,-22,-22,-13
-3,9,-2,24,6,-4,12,5
-6,4,-29,-8,-64,2,7,7
-7,10,95,16,-3,1,-13,-33
18,-11,-56,-24,12,-7,-5,17
-14,-8,2,106,-15,10,-3,-11
0,16,3,-86,-19,4,8,3
-12,-10,-17,5,-47,-32,-14,-11
-7,-14,-29,-10,18,2,13,2
-2,14,-18,94,-36,6,-7,-18
14,5,42,-15,24,5,-3,26
11,-2,24,-29,48,9,19,22
0,-11,-35,17,-10,-10,-12,5
-1,15,28,22,8,14,6,-2
-15,-7,-18,3,33,-11,-8,-11
2,13,111,18,-67,-4,7,1
-12,1,-85,-34,-2,-9,-16,-15
0,-9,31,15,-128,-52,21,17
5,-9,69,47,127,44,-4,-6
-8,-7,-72,-19,4,-3,-10,-8
-10,-13,-18,-7,63,7,-14,-14
-26,-17,53,-77,-52,-23,-23,-36
10,22,21,-11,-28,-21,1,4
-21,-14,-50,17,64,25,-4,-10
-6,1,-17,-20,127,12,7,-2
13,-26,-116,-94,-128,-59,-19,9
6,3,89,85,127,77,19,7
-6,-1,27,127,35,-7,-19,-4
-2,16,18,1,-31,-25,-23,-12
-9,-31,-92,-61,-38,-28,-1,-3
3,9,61,12,52,28,12,9
5,14,54,9,-45,8,22,2
-1,8,34,-2,-34,-39,-27,-5
-5,-8,-128,78,-35,-10,-9,-10
-14,-5,127,-23,-53,-43,-28,2
7,-27,-33,-86,-2,17,33,0
-5,-8,-68,15,-10,-4,-2,-13
-14,-5,-29,10,13,7,-9,-12
-9,16,-12,24,8,17,15,-6
-25,-8,-6,26,17,7,8,-35
-10,13,52,-6,1,-7,-15,2
27,-18,-48,-29,-11,-14,-13,36
0,0,7,2,12,27,7,-7
0,6,41,-18,19,-17,-8,-2
-13,-19,-71,12,-124,-37,-12,-15
3,3,-56,23,76,45,11,-3
-1,22,117,13,37,13,-8,-12
-16,1,-114,-35,46,-15,-11,-15
3,7,127,10,-128,-50,3,39
10,-10,-38,13,41,48,-12,-60
-9,-25,-77,-89,56,-8,-19,-8
0,18,21,6,0,10,1,15
-3,-9,-27,5,12,4,11,7
-14,-4,20,26,-6,-36,-21,-8
-4,5,-46,-35,-58,8,4,1
-7,-9,-20,-44,11,-8,-11,-4
2,3,8,46,-35,9,35,27
2,-13,112,48,-78,-10,8,-4
5,-2,-13,-29,28,0,-14,-3
0,16,-8,15,0,13,5,0
-4,2,-32,-36,-6,-36,-22,-7
-14,-1,-21,2,-9,-13,-21,-25
1,16,-22,-17,60,4,35,45
-36,-32,-128,17,-102,30,9,-49
48,25,127,-49,-58,-49,-35,16
6,4,-51,127,10,-15,-15,6
-6,-3,-6,-28,15,1,2,12
-14,-17,-83,5,-36,-4,-4,-6
-15,-19,-3,33,21,18,-1,-16
-1,17,127,47,-18,-26,-2,10
-3,-1,-48,-16,29,27,13,-19
6,17,54,-29,67,2,-9,-15
-4,-5,28,15,-128,-39,-16,13
-8,-8,25,-22,-28,-13,-11,-12
4,-7,-83,11,14,10,11,2
-2,1,15,-10,70,33,8,0
-1,-14,-116,-55,54,-9,-9,1
4,22,34,22,-128,-39,-7,-7
-12,-3,127,127,4,46,5,-12
-31,-28,28,-106,58,-26,-25,-37
16,10,-13,-26,-15,-13,2,14
24,-2,-21,-46,19,20,-3,21
-6,-3,-36,-24,-33,-26,-17,-7
-5,-2,-11,22,-21,10,8,2
-15,-9,3,18,21,-15,-20,-14
3,24,40,-4,108,41,21,7
18,1,-29,83,-61,29,82,53
2,7,-15,-81,-42,-12,1,-15
-8,-5,-5,54,24,-18,-28,-5
-6,-1,6,-128,-11,1,-8,-9
-5,10,-12,15,95,50,41,16
-18,-13,-102,-10,-21,-2,2,-29
21,9,118,80,-3,-5,10,25
13,12,12,106,39,-1,-9,1
-3,-3,22,-71,-15,-15,1,25
-13,-21,-16,-4,39,2,-18,-36
-2,-9,-35,1,-80,-21,-4,1
-7,4,-63,4,27,10,8,2
2,-22,-3,-7,7,8,8,12
-2,30,72,-53,-49,-46,-23,-11
-19,-26,73,127,16,29,18,-10
0,18,51,6,55,28,11,1
28,3,-61,78,40,-20,-9,22
-16,-13,27,-128,-56,-11,-6,-11
3,6,-32,21,64,16,13,8
-12,-11,-47,-26,-30,-17,-15,-16
-6,-7,-66,-5,3,-2,-12,-14
2,13,19,42,61,38,15,-4
-10,-20,-87,-62,20,-19,-28,-14
2,6,127,33,-103,-2,15,5
5,7,2,62,-3,4,-8,3
0,2,4,-48,-28,-7,-3,7
-17,-16,-34,-48,0,25,2,-28
-7,-17,-57,-7,6,-26,-25,-34
-2,4,56,-14,-49,-14,-9,1
7,-4,12,-23,-35,-12,-14,3
-2,5,43,61,14,-25,-16,11
-3,0,-15,-8,36,6,15,-4
-3,-9,38,56,-84,-26,-18,-3
7,2,-27,-94,41,-5,-27,-2
-4,9,7,-1,12,9,-11,-9
-14,-13,-32,-25,-71,-41,5,-14
-5,18,-5,3,-128,47,34,-4
14,2,30,58,25,-45,-27,-1
-8,-13,-123,-53,-2,-4,14,29
0,-15,69,-19,-18,-14,-6,1
-6,4,-7,114,-14,5,-16,-5
-9,-4,31,6,-48,-1,4,-12
-5,1,-32,2,-41,-6,12,-7
-13,-1,-62,-43,16,-15,-9,-7
-4,-10,-31,36,23,9,2,0
-3,-14,-25,42,-128,3,8,-7
-8,-2,4,-128,-37,-28,-12,-11
8,9,31,72,59,17,6,11
1,4,-41,-100,0,-16,-1,2
-11,-1,-22,-17,-2,-19,-20,-21
-6,-7,15,-18,-41,-18,11,-4
4,5,8,32,92,26,25,11
7,-1,-14,-16,-45,-13,-16,12
-2,-8,-23,41,-5,9,-13,-12
8,1,-128,-43,-34,-8,-9,26
7,10,127,55,2,-17,-11,-10
-11,-1,-23,13,12,-28,-15,-6
-1,8,2,127,27,14,-5,-19
-22,-18,-18,-128,-2,-16,-13,-34
6,2,-36,11,-7,21,16,10
-13,4,6,-40,-26,12,-9,-14
-12,13,19,115,-2,-42,-28,-20
8,-31,-25,35,-128,-27,41,16
7,-9,0,81,127,32,-5,15
8,15,68,52,59,5,-4,-8
-17,-10,-95,-23,-15,-37,-41,-25
-7,-22,100,-8,-128,-31,-14,-8
0,29,74,97,12,6,13,1
-12,-2,3,-128,-47,-13,-1,5
-3,21,-128,29,11,-22,-38,-3
0,-2,127,42,64,-19,9,-1
-3,-7,50,-8,-41,51,35,-14
22,18,12,-16,39,-15,-7,18
-3,-5,1,-49,-8,47,12,1
4,2,-46,21,51,-33,-25,2
0,6,-12,-34,-26,-23,10,24
-10,-3,30,53,127,37,-13,-25
1,-12,-34,-34,7,10,1,0
-7,1,-8,56,63,2,-14,-1
-12,-11,-23,-126,-18,-8,1,-15
4,-3,-11,-11,-49,5,-20,-7
-1,9,69,10,-52,-23,-5,3
-13,2,-11,-10,6,8,-4,-7
4,-9,-27,-15,43,-11,20,16
10,-8,15,22,-128,-18,8,-4
-4,11,-104,-1,24,13,0,-3
5,4,-50,71,10,7,-6,1
12,-4,127,30,30,3,-2,14
0,8,60,-11,-17,-22,-20,-5
0,2,-50,26,48,0,-2,0
-7,-10,-47,-8,-15,7,9,-8
-10,3,42,-22,-10,25,26,-7
17,7,54,55,108,38,6,11
2,7,-65,71,45,0,-18,17
-16,-22,-94,6,-16,-29,-32,-38
17,13,120,-72,-45,27,25,15
10,11,-46,-1,5,-9,-8,8
-6,3,25,40,7,23,8,-11
-14,6,-74,-20,95,-3,-6,2
-5,-24,-35,-22,-128,-59,-3,-12
23,11,122,111,101,28,10,20
-9,-7,-62,-67,32,7,1,5
-5,3,49,-31,-10,1,7,9
-8,16,85,45,-8,-3,-13,-23
-7,-10,-15,-47,-23,-27,-30,-22
3,-3,-48,8,-60,9,9,8
-3,9,64,2,32,1,-2,-5
11,10,-5,7,-43,1,15,19
-15,-21,-7,118,15,-11,-31,-42
8,-7,-47,-128,-88,-32,-7,29
-8,-1,-19,38,8,18,-5,-34
-1,-1,50,-57,-13,-7,-3,-6
-14,4,-101,-19,70,-24,-35,-18
-16,7,124,38,-128,-61,5,-9
14,9,26,15,127,65,31,1
5,-3,-41,-56,0,8,6,12
-7,-14,-38,-20,-8,6,-4,-15
3,-4,-66,-53,6,-28,-30,-6
-5,-15,41,49,-48,-8,6,2
7,-4,-49,4,-58,-12,4,7
-4,14,11,7,-2,1,-20,-12
-11,-7,2,-20,95,9,-8,-5
16,11,-45,96,-80,9,14,1
-3,8,-37,-128,3,-4,-12,-5
-6,-11,31,-59,-40,-21,-2,8
-4,-3,-6,-5,-25,-26,-19,3
11,17,-78,111,61,44,39,21
-22,-4,127,-128,-19,-9,4,-25
0,-30,-22,-12,-63,-5,-7,-1
12,5,-62,34,39,22,10,16
-7,-21,-11,-18,3,1,-17,-5
-7,5,-16,-17,15,14,1,-2
-1,12,74,21,12,-17,-7,-5
2,2,-17,-8,-10,-16,-3,-2
7,17,-37,-4,-8,5,3,12
3,9,6,-6,-13,15,5,-11
-3,-13,-99,-97,7,2,5,-8
-10,-10,43,77,-83,-29,-4,8
-6,-6,-59,86,79,10,-13,-21
18,14,2,-128,18,-30,-27,18
-3,-2,-59,-66,-122,-16,19,19
-15,-27,-27,37,7,3,-7,-35
3,3,53,-1,97,16,2,4
-19,-8,-92,-13,3,7,-26,-29
0,-14,87,-16,2,19,53,23
2,26,84,56,-23,-16,-19,-7
11,-8,-56,-89,-28,-36,-9,29
-6,3,17,-38,4,0,-4,-5
-16,2,-4,-1,12,8,-4,-18
11,-6,-36,-6,-7,-11,0,2
2,2,-50,19,-59,-15,-10,2
1,-13,-60,-57,-44,17,21,8
2,28,79,68,33,26,7,-1
-9,-10,80,-6,32,-21,-19,2
-1,4,3,-24,-8,-12,-6,2
-4,-2,-49,-19,-10,-6,-13,-7
-16,11,15,94,36,6,-1,-22
-12,-29,-35,-81,94,0,16,0
18,25,26,48,11,-13,23,31
14,19,35,57,73,22,-9,0
8,18,39,27,24,2,1,6
-13,-8,12,-90,-18,-9,-11,-15
-12,-19,-23,-20,32,4,0,-13
1,-8,-128,31,-43,-9,8,-1
-3,-7,107,-17,-47,1,-3,-4
-8,1,18,47,34,-9,-14,0
0,-5,-76,-37,38,27,14,-4
-3,-13,3,8,22,-10,-18,-10
11,8,-35,-89,-16,0,7,11
-2,-12,34,4,21,-2,-9,-2
-13,-14,8,-2,-36,-1,0,-5
4,21,-15,75,-16,-6,1,-2
-13,-32,-128,-75,32,8,-10,-16
-2,16,123,57,-107,-23,-19,-9
3,3,-68,106,75,-13,-15,-3
-1,3,26,34,79,31,13,11
-21,-21,-90,-128,-24,10,-3,-35
3,-12,-33,-32,-28,-53,-36,-1
0,-3,-27,6,7,19,19,8
-25,-3,-79,21,36,-11,-14,-18
27,-16,25,-20,-6,39,41,49
33,0,14,36,-9,-12,4,33
-2,39,127,-5,-3,-3,-12,-23
-9,-3,-100,-3,6,-3,-6,-11
-10,4,67,-16,-2,14,25,5
-5,-10,5,21,20,11,1,-9
-10,-2,-22,-46,8,-15,-10,-8
6,-5,4,70,-78,-29,7,31
4,-12,-120,2,91,32,2,-7
-3,13,73,-58,-25,3,3,1
-13,4,33,-22,-46,-41,-24,-12
-4,0,21,-25,52,7,2,-4
4,3,18,89,-26,3,-4,3
12,17,-39,-128,34,3,-3,8
-17,-15,23,37,-110,-30,-21,-29
5,-29,16,22,-36,5,15,10
4,14,16,-42,127,26,2,3
-1,5,28,22,6,-6,2,0
0,13,12,118,56,23,12,5
-13,-19,-55,-128,-29,-37,-29,-13
-12,-9,-128,50,25,-2,-19,-6
-12,5,127,-21,19,-4,21,-12
11,-19,-75,35,20,16,-18,-4
4,-1,-44,-78,-72,-42,-6,13
-6,-4,8,-12,22,-8,-10,8
-7,-13,-116,39,-6,-29,-20,-12
-2,-13,77,-58,-33,-2,-1,-6
-18,-3,49,10,-5,1,-7,-23
-1,8,-45,23,15,13,8,17
10,-4,20,14,-5,12,-14,-12
0,16,-7,1,5,-8,0,20
-12,-6,-64,-4,21,-33,-29,-23
-7,-22,25,67,-90,14,31,9
-5,4,-4,-41,43,56,33,-6
-10,-6,50,9,-4,-6,-8,-14
-10,-3,21,58,-13,-15,-20,-8
-8,-6,-18,13,63,16,-18,-6
2,6,8,64,0,17,12,-7
-9,-10,-27,-128,28,27,-1,-10
3,5,15,-3,-44,-12,27,13
-17,-26,-67,6,-5,-30,-17,-15
18,-3,23,-60,17,50,67,50
-6,0,-52,-58,-52,-27,-21,-12
15,8,92,40,-14,-1,7,16
6,15,-28,44,75,31,23,16
-15,11,-106,-60,36,-17,-33,-27
3,-28,46,50,-128,-6,12,6
10,-4,-66,29,51,7,2,14
-6,26,127,26,-79,-16,-13,-10
-4,-9,-93,-52,31,8,9,-2
-11,0,87,103,20,-7,-2,-13
3,3,-23,-79,0,18,24,11
-2,-11,-82,12,-32,-5,11,8
4,-1,44,-13,-33,-6,-5,8
-5,-11,-103,-17,38,16,7,-15
-2,-7,49,-22,-20,-13,-10,-5
-5,-1,-76,127,20,0,10,1
-16,-26,-27,-128,0,5,-9,-12
19,37,69,34,9,-2,9,32
-16,-12,-32,-5,-7,26,22,-13
-13,-10,-27,-9,-3,-7,-30,-23
12,-4,17,-15,-54,-34,-17,10
-2,-11,-6,7,41,13,-15,4
4,0,4,8,33,-7,-24,-19
4,12,-52,-39,-40,-4,11,18
-17,-14,31,84,85,15,-10,-20
1,21,19,5,39,-7,-14,11
-23,-31,-1,59,95,18,-23,-30
19,9,64,-17,21,21,33,40
2,-7,-62,-79,-2,31,14,18
-6,13,34,-70,-37,-42,-9,-12
-4,-1,94,127,-27,-7,-13,-8
-7,12,18,-46,17,25,-6,-22
-21,-14,-46,-44,-104,-61,-31,-27
13,1,-31,99,44,-2,6,10
5,8,22,107,40,-10,-18,0
-13,-2,63,-121,-90,-5,-15,-27
-7,-24,-128,-31,-9,-23,-5,-5
8,11,-28,-3,-128,-24,-1,8
-3,-6,52,111,99,27,11,3
-13,-15,-32,10,-5,-8,-5,-18
-2,-12,-2,-56,-38,-14,-2,-3
10,9,-40,-5,-4,-2,-12,5
-6,5,-62,26,10,-5,-22,-7
7,15,16,74,-7,-20,22,25
-11,-30,54,-106,-49,22,27,-16
-7,-6,-30,48,19,-25,-29,-11
-4,3,-7,33,10,-3,-2,-6
-1,-13,-43,13,-23,-16,5,8
-12,5,19,-19,4,-2,-19,-28
-18,-5,1,-8,20,4,5,-12
16,16,-35,27,-9,36,26,18
25,-20,45,6,-19,-15,-26,18
-13,-1,-14,1,25,-4,-10,-18
-7,4,-32,-33,9,22,-4,-6
-2,-9,-6,-71,-4,-47,-24,-7
0,0,14,41,-36,-16,-2,-7
13,3,-52,36,2,14,6,26
-15,3,68,2,6,-4,-23,-24
-4,-14,-39,-15,-12,10,10,-6
11,42,109,-19,40,-5,-9,-4
0,-21,14,28,-37,-2,14,7
-7,-10,-77,-1,-50,-13,-8,-5
-2,-8,47,-78,32,-21,-25,-12
-13,0,5,27,-43,-17,-24,-23
2,15,-34,-87,-128,-67,13,37
6,8,127,127,109,65,39,1
-5,-11,-128,-128,-75,-16,-23,-3
-6,-2,127,69,19,20,-2,-5
-5,-14,-90,0,-16,-4,-3,0
-3,-11,5,-24,-36,-35,-31,0
-13,20,43,38,18,19,12,-56
5,2,90,3,27,16,24,22
8,8,-56,-93,-108,-29,-20,22
2,-29,-80,34,9,-4,-15,13
2,-7,21,-123,17,-10,1,1
-4,3,-14,9,5,4,-10,-19
-4,10,-22,-19,-5,3,8,-4
6,11,-16,-7,0,-4,2,1
-12,-8,10,-13,13,-20,-3,-3
0,0,-21,29,40,-6,-4,13
1,-4,-15,-10,-128,-10,2,-9
-3,-7,-6,20,38,-15,-19,-8
-5,-7,-11,6,103,13,-4,-5
-19,-11,-28,-13,-58,-29,-13,-16
21,-4,-46,-76,90,93,62,38
16,7,-14,14,-71,-70,-37,4
1,0,-11,16,-22,-7,5,7
-21,13,78,-3,18,-4,-10,-24
-9,-15,-56,15,-80,9,12,1
38,16,64,19,-39,-10,-8,23
-5,15,-26,69,6,10,3,-7
-4,-11,13,9,37,-13,-28,-19
0,13,50,-128,-103,0,59,35
-12,-1,-33,127,87,-8,-28,-33
3,14,127,-128,25,-5,-9,1
-12,-3,-33,-5,25,14,-11,-6
3,-5,-38,-2,-38,-11,10,22
-7,1,-14,-37,8,-1,-9,-15
-4,-2,-18,78,-31,-1,-7,-10
8,-5,-72,-55,-83,-10,10,11
0,6,-74,-54,127,20,-1,6
-5,20,36,-10,18,19,21,-1
-7,-23,-17,31,-66,-18,-3,-11
0,-30,-24,-37,-10,-12,-16,2
0,1,19,5,-11,-25,-24,-11
-10,4,30,16,-22,3,-3,-12
3,5,-9,-5,-26,-1,22,19
-1,-3,-19,-8,2,-28,-24,3
9,-1,-10,-16,-4,-6,6,14
-1,-2,-15,6,14,7,0,-7
-17,-21,15,13,28,-6,-15,-26
-9,-8,-23,-23,11,38,-3,-20
27,10,-98,-17,24,-42,-7,45
-2,-22,110,-6,36,-10,-9,8
-2,8,-116,-18,-128,-23,4,6
-23,1,40,49,73,18,-21,-39
3,8,127,20,-28,-5,-2,10
-13,2,-23,127,33,-16,-20,-18
14,-2,7,-128,-9,-3,6,5
13,0,-120,-30,4,-10,13,22
-9,-19,-35,56,-41,9,7,-8
-2,9,53,25,7,18,-1,-9
-3,-5,55,-66,-34,-40,-20,-4
-6,-9,-104,-42,-30,-27,-34,-24
-13,-17,103,108,10,-18,-1,-15
1,-4,21,-128,-4,-12,-10,5
-5,-17,2,37,13,13,6,1
-1,10,-59,-22,-3,-13,-13,5
-6,1,-44,33,-44,16,24,-5
12,-5,4,96,4,11,9,3
-13,-1,13,-40,24,-16,-10,-14
25,11,28,30,29,37,21,45
-1,2,4,2,9,-23,-26,-21
-10,2,6,-9,-33,-6,-6,-11
-8,-10,-12,-13,-12,-1,-3,-18
-2,-9,-1,-19,-5,14,9,-11
4,3,-1,28,0,-10,-22,7
23,19,0,-15,-28,-8,16,43
-3,-5,9,22,32,13,3,-6
-15,-4,-11,-68,-21,-14,-9,-14
-6,-3,3,-79,7,-1,5,-5
-16,-25,-49,7,-12,17,1,-9
6,12,51,110,-12,-29,-6,-2
