Channel_1,Channel_2,Channel_3,Channel_4,Channel_5,Channel_6,Channel_7,Channel_8
-2,-3,11,34,1,-3,-3,-1
-10,-5,-30,-14,77,15,-22,38
27,18,41,-28,-7,-3,-2,53
3,80,21,78,127,45,7,-21
-4,8,-20,-27,-76,-35,-51,-27
-28,-82,-29,-42,-128,-53,-9,-9
3,-15,-85,24,109,15,-1,13
-19,14,-10,-39,35,-40,-18,-18
13,-3,5,-44,-128,-25,28,11
-25,-6,-9,127,127,69,9,-37
-11,6,-10,-33,-47,-2,-4,-27
25,7,-3,-20,55,-14,-37,13
19,26,26,88,-37,38,34,31
-6,-19,-63,14,116,3,-15,-16
-8,36,49,17,21,10,-2,0
-33,-19,6,-37,-114,-28,-16,-51
8,-41,-11,24,109,17,4,-6
-5,-6,-35,-4,61,9,-9,24
-9,-7,-4,-119,-39,-66,-75,-53
32,60,66,127,62,42,38,-2
-24,-1,4,34,11,39,7,14
-1,6,-7,-3,18,-7,-14,1
-13,-16,28,19,-36,13,7,7
-18,-16,-108,-43,47,-11,-21,-38
-20,-33,55,9,-128,-35,8,-21
16,7,36,25,21,7,27,56
30,-10,-16,25,57,2,-2,35
-5,18,70,-60,-45,-15,0,-14
9,-1,-77,-128,70,-49,-54,111
18,19,-26,127,-128,86,54,33
0,47,64,4,24,20,25,-21
-9,5,-30,-36,-46,-22,-15,-46
-27,-28,-85,-44,-29,-8,3,26
-33,2,-11,-128,-11,-85,-77,-84
26,0,96,100,-128,30,68,34
-5,-16,-82,49,127,40,10,0
22,-7,-22,-6,27,3,-1,51
-30,0,-24,-48,18,-14,17,-30
-7,-29,7,-116,-102,-59,-52,-2
38,36,-27,125,-119,7,14,54
11,7,16,83,92,32,2,37
-18,-81,-6,-20,-12,-18,-31,-19
-34,18,-6,-31,-28,-13,5,-63
0,-3,17,-16,-12,-2,1,41
86,31,89,38,16,19,23,101
-12,-3,-1,-23,4,-9,-5,-50
-31,-8,50,-84,-67,-50,-38,-19
21,-12,-59,70,123,68,18,19
23,29,8,-12,89,-10,-12,35
-65,-28,-22,18,-128,-18,-9,-114
-19,-12,-61,-46,-25,-11,-4,-68
60,60,119,22,127,5,-16,127
37,4,-45,-82,-128,-60,4,33
-10,34,9,77,127,75,24,-14
-19,-37,-7,34,94,1,-19,-37
-45,-49,36,-128,37,-56,-30,-44
29,-15,35,96,-128,25,44,0
22,16,2,119,127,77,38,63
-19,0,-13,26,-2,16,8,-17
-21,29,36,-33,-20,-24,-15,-3
-5,1,-22,-38,-20,-23,-24,-8
-3,7,14,-128,-128,-57,-29,-11
-6,-23,-37,63,13,31,47,-36
-22,-40,-128,-3,-70,-4,-29,-5
57,19,111,31,-128,-14,-7,96
18,37,-8,20,45,6,-20,17
-29,-5,-92,-34,-27,-13,-4,-34
-32,-48,41,-7,-13,-2,12,-14
-27,6,60,-24,2,-3,-12,-60
44,-5,19,-16,-37,-6,30,34
-2,-3,-10,-11,-16,-10,-2,11
-34,-42,5,-1,-7,-3,1,-56
-7,53,53,17,17,1,1,34
12,-31,-31,18,43,20,0,1
5,-57,-108,-36,79,-2,-5,41
14,58,51,30,-128,3,27,17
-33,5,-24,-128,-114,-107,-76,-72
-12,-33,71,127,-79,70,89,14
-26,2,-32,46,112,44,-28,-75
11,-12,-27,-53,-56,-42,-50,67
24,3,97,-35,-128,-49,-16,32
-3,-4,9,-15,107,23,-6,-15
-21,-3,-37,-116,-128,-45,-4,-40
-9,6,-49,-76,127,-70,-23,-30
10,21,48,127,127,127,126,3
-22,-26,60,-17,3,-9,18,26
29,-9,3,-123,-46,-34,-49,28
-7,-16,-88,-107,-76,-61,-38,-42
14,40,15,76,-128,10,35,-1
21,5,88,119,-6,45,16,23
-19,3,-20,-33,1,-14,-20,-37
-19,-1,-37,-23,-40,-12,8,-21
-3,-1,-27,-10,52,9,6,19
-27,-36,-34,-21,-36,-20,8,-48
46,20,-29,-2,-12,-8,-67,123
33,42,54,3,-8,-12,-20,39
-24,14,-44,-41,2,7,24,-14
3,-22,-5,-12,-8,-21,-23,35
26,-45,31,46,48,33,11,-5
-34,33,-24,6,18,4,8,-61
-14,37,-2,-9,12,1,20,-66
4,-12,-6,22,11,7,-3,50
12,-26,-100,-32,-29,-20,-16,20
-27,-15,26,-6,51,11,7,-3
-18,-2,-18,-31,127,-8,-19,-40
32,-33,-27,-13,-128,-14,-4,0
1,-28,80,75,-37,14,5,6
-7,12,-110,37,127,59,19,11
16,46,87,17,-6,-4,1,9
5,3,-4,-30,12,-16,-22,-15
-22,-35,-50,-110,-128,-60,-32,-28
-2,24,28,74,47,21,34,6
8,-12,-13,45,124,53,22,-4
-8,-28,-46,-31,15,-2,-5,-22
-30,1,-30,-68,-31,-33,-38,-34
59,20,80,10,95,12,-42,38
-8,2,-18,51,-26,30,27,-1
-10,45,7,54,-9,11,26,3
-24,-27,24,-11,34,-8,-12,-38
-58,-32,-35,-36,-2,-20,-30,-119
7,41,39,-6,33,-3,9,12
49,-3,-61,-25,-88,-7,-13,100
-33,-6,48,-112,-128,-96,-22,-25
-16,-12,66,56,78,102,38,13
53,-4,-35,73,-128,25,25,67
-10,2,34,24,36,6,-8,-14
-7,2,28,-17,-19,-10,-10,-18
-16,-18,-48,-96,44,-28,-17,-44
-29,-18,-4,-20,-128,-72,-3,-53
16,21,10,127,127,121,37,80
-2,43,-8,17,58,8,-12,-30
-17,-39,-24,-128,-41,-83,-58,-7
27,-18,36,127,127,124,50,25
-8,22,-100,-1,-59,-10,-7,-10
-10,-13,40,-20,-37,-7,1,-29
-27,5,-6,-33,14,-11,14,-10
19,-12,-35,-67,-121,-58,-31,2
-9,3,6,3,127,25,-11,-39
9,-49,-54,42,-128,-16,-8,5
-11,3,41,40,114,10,-17,-13
25,72,47,-10,7,-7,-2,17
-9,39,23,-13,-1,-3,12,-7
-26,-39,41,-12,-14,-8,7,0
-3,-26,-24,-25,-10,-17,-30,86
0,-12,-7,-12,-105,-17,0,-31
-9,-27,-68,19,93,27,26,6
28,14,-34,1,3,11,13,21
4,17,102,11,-8,-11,-3,17
-19,-16,-55,-8,5,7,1,-18
-10,-25,28,-48,48,-24,-45,-59
-23,46,0,69,-6,20,29,-41
17,-19,-20,-50,-128,-44,-17,31
18,-31,-92,91,127,105,62,41
-33,-10,-5,12,61,11,-38,-80
-23,37,49,-56,43,8,10,-89
51,47,64,68,53,1,13,127
14,-64,-40,-17,99,13,-19,36
-18,-20,-42,-85,-9,-43,-23,-28
-12,11,-32,50,-25,10,28,-8
12,53,67,127,127,91,17,-1
-13,-20,35,-31,-29,-11,-1,-22
-41,-27,-14,-20,-12,-7,-13,-54
16,-16,-40,-59,36,-7,50,15
21,14,15,-17,-128,-57,-22,63
48,23,68,92,127,82,1,42
-3,-26,-19,-37,-78,-25,-31,-24
-20,5,-22,-36,-82,-29,-4,-28
-20,4,-17,0,38,24,36,2
-2,-8,90,39,-38,1,3,0
-21,3,-67,37,84,23,-23,-28
-34,-24,-1,-10,52,1,-4,-89
52,10,46,-11,-7,-2,32,114
-7,2,-7,-58,59,-18,-26,10
-27,-38,-3,-15,-128,-10,33,10
-13,15,-92,66,-9,5,-8,-110
1,51,127,-3,39,3,-5,16
38,-10,35,-10,-29,-14,-72,66
10,-8,-26,-25,5,-6,-3,41
-32,-1,-1,72,33,32,34,-42
-4,-29,-104,-29,5,-6,2,-25
-15,1,127,-23,25,-9,-10,-45
-19,-19,-14,-44,-64,-30,16,-57
25,30,-79,-71,-46,-19,-41,48
10,35,127,127,127,120,63,24
0,-15,-8,31,38,16,14,14
18,-16,-17,-30,-25,-16,-17,21
-14,20,-41,-36,6,-17,-19,-34
-7,-12,26,-57,-56,-49,-6,-13
7,-21,-13,33,119,24,9,2
2,-23,-12,-33,32,-7,-18,6
-24,-18,4,-21,-104,-35,-4,-12
-21,39,-18,-2,57,22,14,-25
9,16,-38,34,13,-8,-2,-20
47,15,13,13,-128,0,43,123
15,14,121,22,40,-2,-26,11
-6,1,-36,-31,-22,-18,-26,-42
-44,-46,-28,-43,11,-15,-10,-65
-51,-7,-14,-63,-117,-43,-7,-97
91,43,60,89,127,52,-48,127
-1,35,-28,6,-23,-8,7,-61
-9,-32,17,-4,-25,-9,-7,41
-2,-22,-27,-26,-15,-26,-49,-62
-54,-14,-72,-128,-110,-64,-13,-22
62,18,61,127,127,99,64,55
-4,23,-22,11,77,11,-5,-7
-7,-3,4,-27,-1,-9,1,-8
-21,-60,-45,-45,-120,-31,-10,-34
-2,33,-13,-8,47,13,-10,26
8,17,27,-36,6,-18,-21,-10
-1,-2,20,-23,-53,-20,-5,4
-4,24,56,77,-43,32,23,0
-11,-26,-41,18,62,-2,-6,-10
-16,10,-8,-43,27,-12,-2,-14
4,-14,-55,23,-23,21,5,-8
13,34,24,-26,13,-2,-12,12
5,12,-51,15,54,9,2,1
3,-17,127,29,-11,-2,-5,4
-11,-2,-19,-28,-5,-11,9,-15
4,13,-7,2,-12,3,11,-3
-16,-27,-73,-26,-10,-8,-23,-20
-4,0,-72,-77,43,-12,-10,-71
-23,-13,67,53,-128,20,22,-49
71,25,3,54,-64,-35,-4,127
12,13,37,52,36,10,-16,12
-7,-3,27,-9,-1,-2,-3,-13
-14,-1,-59,-36,-4,-9,-6,-22
-18,-35,-39,-88,61,-32,-21,-24
-35,-48,3,-60,-128,-98,7,-18
19,44,23,127,127,124,60,19
11,15,-93,-15,67,4,6,24
-17,-12,-8,-27,-11,-5,7,-6
-2,-4,-23,-51,-39,-25,-43,-17
-21,8,54,-36,-76,-25,-24,-27
39,26,-23,-53,63,-4,-6,44
-11,-27,-25,22,-128,-13,33,-22
-1,0,77,59,72,20,4,5
45,-4,-49,18,27,1,-16,57
-10,1,33,-30,33,-9,9,-41
-2,-34,-75,-9,-118,-21,-3,4
19,32,72,17,33,-1,-1,39
-27,-29,-15,-14,-53,-18,6,2
-24,7,-20,4,93,6,14,-5
-24,-18,-69,-128,70,-82,-29,-66
-10,19,62,127,-128,103,62,15
56,37,35,121,127,50,-23,122
4,2,13,-48,-1,-18,-15,7
-7,-5,-43,-48,-23,-9,-17,-26
-6,-14,6,-36,-36,-24,-19,-42
-40,-28,-81,-40,-54,-24,-12,-44
-36,-13,4,-25,-21,-6,5,-59
22,-12,-14,-7,-128,-25,-14,-16
81,60,62,37,53,20,32,102
-12,-12,-28,-11,-39,-9,-17,-6
-27,-11,-55,-41,-31,-21,-21,-30
-28,-25,-45,-23,56,-9,-9,-29
-32,-27,-40,44,-128,9,-5,-109
34,17,26,17,107,22,18,67
-2,-9,-3,3,9,-20,-13,47
32,-4,-62,-11,-127,4,22,40
-7,20,23,-18,36,6,-1,-30
-14,5,-59,3,4,-10,-8,-32
-22,-32,-18,-30,7,-7,-14,-34
-24,-2,-37,-94,-72,-86,-48,-32
-9,-10,-13,127,127,125,44,8
30,2,81,-13,-39,-27,-8,19
19,12,72,106,127,57,36,30
-12,-1,-12,3,31,-6,-16,3
19,9,-47,-44,-13,-11,-21,-42
-1,-8,51,-70,42,-31,-24,-28
-32,-14,-47,-91,-128,-74,-6,-5
10,4,-99,127,127,108,37,9
17,-4,59,-6,17,15,5,41
23,8,73,6,19,-8,-23,24
-31,14,-50,-21,-5,-20,-15,-23
1,-39,-97,-29,-117,-20,8,6
-21,-37,-18,-88,6,-10,1,-3
5,-11,11,67,-24,-1,21,-33
19,22,44,97,127,69,17,75
8,9,-95,-68,-99,-25,-43,34
-20,18,46,-47,83,-18,7,-37
-19,-20,40,35,-128,-38,-6,9
9,30,10,127,127,108,20,-21
-41,17,-21,-31,-59,-4,4,-54
1,4,5,-58,-5,-9,14,43
51,-8,-128,-55,-126,-49,-22,57
15,-44,-41,-10,64,20,28,23
2,16,127,69,40,23,5,1
-57,-37,-1,17,52,13,14,-41
-7,17,-121,-108,-50,-23,9,-99
41,38,107,73,24,2,24,127
2,-2,-36,-30,24,-5,-23,28
-4,12,-40,-18,-41,-40,-89,-34
-13,-26,-40,-49,-63,-14,-5,-16
12,-4,-47,-57,-128,-53,41,30
19,26,127,127,-106,48,8,-35
15,11,-97,32,127,19,-7,66
-36,-40,113,-19,7,-12,-17,-20
-4,-15,-104,-106,-1,-30,-4,-12
-27,15,94,77,65,31,17,-28
-16,-28,-8,-11,-67,-33,-17,-54
14,61,31,1,46,8,-9,-6
0,-37,-104,-11,-22,-10,6,23
15,4,-9,2,-32,-27,-9,33
-9,-2,14,-6,8,-4,-8,-1
-15,-7,-5,-2,3,2,10,-9
-56,4,-22,-127,-70,-63,-43,-113
20,-29,-65,-64,-24,38,81,-48
103,21,51,127,100,91,-23,127
-21,40,49,16,-30,-12,-21,-9
-3,-33,65,7,12,-5,-2,-4
-40,-32,-6,-64,-68,-21,-7,-68
-12,51,9,2,-79,-14,22,-35
27,-13,-20,-8,26,-6,17,4
-10,0,-16,-32,-26,-9,-28,40
21,-10,-4,-20,-128,-41,-22,-12
5,14,-14,80,127,60,15,-37
-4,-3,-4,6,30,1,-2,44
-29,-17,-25,-117,-37,-40,-20,-14
-33,-65,-126,39,-55,-19,30,-53
-7,35,127,127,127,87,29,-11
71,7,-26,-30,-38,-11,-16,107
-23,-23,-102,-62,22,-11,-14,-27
22,32,52,-103,-87,-63,-24,8
-13,-15,-7,60,-128,23,35,-30
-3,7,33,88,127,52,5,8
-2,-6,-17,-17,16,-10,-12,7
-9,-24,-23,-37,2,-4,3,-14
-6,22,-60,-89,-88,-56,-36,-11
7,45,92,127,127,83,48,30
2,-23,73,25,90,0,-14,-15
4,12,-38,-11,-1,-11,-14,-9
-18,-2,-43,-26,-21,-10,-5,-22
-3,4,84,10,-6,5,4,11
27,22,70,-1,-3,1,2,7
-44,-26,-14,-17,-15,1,24,-82
-4,2,-116,-19,-72,-10,1,57
34,-27,-15,2,-38,-6,-25,37
-16,0,46,0,-18,-14,-38,-26
55,25,19,-12,38,2,0,39
6,-15,-44,-38,-128,-30,4,16
-25,11,29,-52,-20,-40,-25,-37
-19,-11,-7,42,-128,24,46,-36
-14,4,77,33,77,12,4,-19
-14,27,103,37,-128,14,39,-10
-1,25,-25,-6,-36,-21,-26,-19
20,41,-20,-16,43,-2,-10,1
15,-23,-58,-69,-100,-43,-12,84
22,-35,47,39,-36,10,10,-5
-45,8,13,9,21,11,2,-36
-2,20,-2,-30,115,0,-13,-63
-18,-12,-21,-39,-128,-21,40,11
36,29,16,39,86,13,-16,51
15,-17,-29,38,59,-9,-33,51
-14,-47,-63,-22,15,-8,-10,-32
-51,-37,-120,-102,-14,-53,-33,-73
8,64,50,75,-16,51,41,-6
19,-12,7,7,102,-5,-1,16
-52,-27,-18,-116,-128,-82,-13,-37
25,-20,-28,60,-67,9,-13,24
44,28,7,40,77,21,-1,26
11,31,15,-5,30,1,10,30
-8,4,-28,-51,-28,-25,-14,4
-24,-7,11,-1,-4,1,-7,-9
1,-45,-4,-103,41,-21,-33,-54
5,-26,-126,96,71,32,40,11
16,35,20,34,28,9,3,0
0,6,58,-1,19,-9,-14,-9
-13,-30,-37,-26,37,9,17,-11
23,22,4,30,60,37,5,29
-17,-34,-17,-38,-34,-37,-23,-26
-16,-16,-78,-91,-3,-26,-26,-23
8,-16,69,70,-106,35,40,24
17,78,36,127,127,116,51,42
13,-2,58,-46,5,-25,-41,-13
-18,-31,-24,-79,-119,-40,-16,-23
-29,2,-110,-38,69,22,10,-63
-8,13,82,35,-72,-12,-20,8
29,-39,-128,12,31,-8,-33,63
-23,13,64,-41,24,-20,-21,-41
29,-18,62,12,-128,-11,37,-4
17,3,-117,9,34,28,49,38
-1,36,80,-12,-7,-6,-29,-16
-23,1,49,11,12,-7,10,-40
-24,-32,-69,-79,-86,-46,-80,-25
-9,1,-43,11,-128,-20,0,11
24,-28,-128,24,-124,-14,12,12
19,31,127,68,127,46,22,45
29,10,-128,-76,-57,-13,8,-6
-46,-37,86,-70,11,-12,13,-22
-8,-15,-72,53,-28,22,-13,-58
5,40,-12,59,12,0,-31,-10
-10,-22,-15,-36,-46,-13,9,-6
-23,-8,-106,-39,-31,-13,1,-28
16,16,56,-128,107,-38,-6,62
28,1,68,127,-128,28,24,73
-15,-10,19,42,112,11,-10,-27
-17,-15,14,-5,76,32,35,-49
-23,-6,-21,-45,-24,-5,-9,-37
-34,-8,53,-128,69,-63,-77,-63
70,-12,-128,127,-128,-39,-7,88
-1,43,127,88,127,42,-17,9
-18,4,111,-53,-64,-27,-7,-65
2,28,-73,-12,-11,5,6,6
-1,-42,3,-128,-79,-64,-28,26
-49,8,-78,55,-12,-5,22,-41
57,56,119,124,-128,54,60,64
3,-22,-12,12,-12,-5,12,-7
-25,-29,-40,-46,-19,-23,-32,-25
-27,-20,-58,-99,-116,-73,-64,-118
-27,11,23,23,81,23,26,-20
64,47,7,63,111,26,38,127
-15,-4,26,88,87,29,-4,-2
-11,-19,-26,-18,0,-4,1,-23
-11,-4,50,-25,-15,-7,4,-40
-4,10,-75,-40,14,-21,-25,-5
-9,-12,30,-15,-37,-12,-27,-5
6,-17,-34,-37,-55,-47,-32,-8
12,39,87,53,127,67,27,27
-9,-37,-40,17,5,5,4,-39
-27,-13,38,10,-22,12,63,-31
-20,-29,-66,-25,-15,-24,-62,46
26,4,14,-12,3,-4,-7,9
18,81,25,-3,2,-6,24,19
-30,-13,5,-12,24,13,6,-72
-34,-69,-72,-18,10,-16,-30,29
-9,-5,-23,-9,-128,-44,6,-23
76,64,127,127,127,85,53,40
14,-17,39,-64,26,-18,-48,-13
-5,21,-9,-35,-102,-21,66,73
-25,0,-21,35,114,31,-24,-36
-1,-36,-71,-15,-128,-51,6,19
-14,-10,-37,-9,119,5,-20,-29
6,-30,40,-107,-128,-48,-15,-2
27,117,50,35,36,63,19,23
-28,-90,-3,127,127,53,14,-6
-8,-17,-72,-29,-128,-26,19,-7
-26,2,40,-4,-85,-42,-10,-55
-11,-10,-17,32,32,44,49,46
36,-1,-6,-83,127,-9,-64,64
-9,-19,21,-17,-128,-76,-41,-41
-26,6,-49,-128,-50,-100,-63,-50
18,6,-23,127,127,127,91,47
5,-28,-50,-12,-9,0,-6,-29
31,12,78,-31,-53,-5,18,39
-31,13,-30,-46,-78,-29,-29,-61
-23,-13,24,-33,-67,-13,15,-61
43,7,-36,-12,6,-15,-23,127
0,-16,-38,-35,-26,-14,1,20
-1,28,-20,21,10,6,6,-5
-4,-17,-30,-17,-12,-6,-15,-23
-50,-9,87,2,2,9,18,-83
17,-4,21,9,38,19,12,23
23,-8,-22,-26,16,-25,-84,42
7,46,80,-6,-61,-18,-2,-10
2,-19,-45,1,-62,-19,-20,-2
-35,-13,25,26,-86,7,34,-39
3,6,-8,12,15,15,4,6
60,74,83,4,18,-11,-11,70
-17,-49,-114,-32,-46,5,4,-31
-33,-11,-5,35,127,24,1,-29
-2,5,75,-19,-43,-19,4,-4
-6,-47,-74,-37,-54,-29,-13,7
-5,-16,40,-25,127,49,71,-31
10,46,-36,-56,-128,-81,-58,36
10,26,68,127,127,101,-3,-13
8,-70,22,74,94,60,1,-8
-5,39,2,-8,-26,-4,12,-4
-9,86,-25,-42,3,-14,-15,-25
-32,-43,-60,-128,-99,-103,-57,-45
23,-33,81,127,121,16,30,68
10,6,-12,127,127,127,38,33
-32,11,48,-7,-1,-6,-18,-24
-2,3,-12,-46,-38,-22,-10,-19
14,0,43,-9,-98,4,16,13
3,11,-27,-12,-7,-6,-2,-24
1,-23,-17,-54,-41,-12,-12,30
-15,-4,-16,-8,-12,-9,13,-23
-21,34,26,-1,-14,6,9,8
37,-2,127,9,-38,-12,-8,37
-43,-9,-32,-25,-33,-7,-22,-68
23,-23,-128,-25,19,-4,-12,37
-8,-37,11,-16,-14,-14,-30,-43
25,123,52,-6,-122,-29,8,16
-21,-14,11,42,-108,27,51,5
1,-22,-21,-15,19,-4,-39,-7
-14,8,-115,-43,45,-13,-27,-9
-16,-28,60,-62,-99,-47,-5,-10
-37,-28,15,105,-15,48,64,-128
8,22,-44,7,89,18,-14,21
23,-15,30,-7,-10,-13,-36,127
-11,8,15,-26,31,1,-21,-42
37,6,17,-59,-89,-38,12,33
-11,-7,31,98,35,59,31,-12
-15,-9,-41,-22,35,-3,-10,-30
-5,4,17,-25,-2,-18,-9,-7
-14,-43,-69,-78,-128,-47,-3,-24
0,15,48,114,127,86,30,7
0,17,-26,15,70,6,-2,-39
-24,57,-17,-31,2,-7,6,20
10,-2,-53,-53,14,-28,-63,-15
31,-10,-8,-55,-128,-77,11,44
18,38,71,127,127,127,49,32
-27,-3,-9,-42,-23,-14,-16,-24
-13,-48,-52,-49,-30,3,10,-35
9,-27,23,-21,-24,-1,4,11
-2,25,-3,-54,34,-20,-46,-19
5,25,-40,-43,-128,-72,37,45
12,25,1,105,127,63,0,20
-1,-20,5,-8,38,-5,-4,-20
4,-6,-91,-121,32,-54,-45,-12
-10,-30,88,89,-128,-9,35,-24
10,33,15,76,127,48,10,39
-43,-30,20,-81,-20,-23,-31,-123
-21,-27,-29,-128,-39,-70,-45,-12
39,57,-20,125,-128,26,60,95
14,7,59,89,127,38,4,5
-5,6,13,-31,25,-7,-19,-17
-40,-20,48,-34,-38,-26,9,-54
-15,-17,-128,-128,-51,-50,-32,-58
62,11,127,107,-128,8,2,86
14,-6,-17,12,73,12,-4,11
-31,-16,-56,-25,-30,-9,1,-39
10,-32,-62,-20,-32,-11,-11,28
-11,3,-53,-43,38,-21,-1,-15
-1,27,-78,-70,-128,-41,-5,9
0,-29,105,98,62,43,9,-26
-3,21,-47,8,7,-14,-13,-12
11,57,-7,15,38,9,19,20
-15,-29,-24,-18,-8,-8,-21,-35
-14,-42,21,-7,-7,-6,-11,-18
1,39,-19,-22,13,6,26,16
-22,-76,-4,-46,40,-18,-19,6
-2,-38,19,-9,-128,-56,-7,-59
43,67,14,127,127,72,10,77
7,29,11,-7,13,-4,-2,1
-12,-18,-53,-45,-20,0,10,-15
1,-13,-91,-5,9,2,11,-17
37,-4,127,-76,10,-22,-9,34
-17,-28,-71,-32,-128,-44,-46,-40
4,9,61,-33,127,-11,22,25
8,34,32,127,127,127,83,31
-21,-6,-9,-16,20,-2,-38,-29
-17,-10,-53,-65,-61,-23,-14,-30
-10,-54,17,-41,-56,-28,-13,-31
-11,7,-85,-42,-13,-14,-9,-42
35,17,63,-19,-29,-22,10,30
22,9,-31,39,78,10,-2,38
-35,-47,-3,-27,-5,-11,-11,-28
-1,-25,-16,27,48,28,28,-22
5,42,22,18,8,-27,-51,26
-15,1,28,-3,4,-2,-11,-16
-29,-13,-12,-75,-41,-20,30,-31
28,8,-58,69,-76,-6,2,41
34,40,127,127,127,77,6,41
23,-45,-17,-25,-92,-22,-14,0
-45,-8,-41,-19,107,23,15,-35
-3,-15,-15,6,34,-1,36,-23
8,-4,-90,-43,-128,-54,-54,-11
24,5,127,70,89,17,-25,74
7,14,-13,-9,87,7,11,1
-11,11,-64,-38,14,-31,-22,-16
-20,-38,-35,-40,-88,-10,20,-6
-8,38,46,-128,-128,-66,-20,-36
15,-23,-17,127,127,102,49,15
-6,7,-70,74,127,36,2,-4
-10,-32,32,-24,-42,-23,-28,-15
8,17,-2,-74,45,-31,-25,3
-26,1,6,-45,-128,-58,28,-10
8,-8,-1,127,127,85,31,22
51,6,-10,-14,9,-13,-15,29
-1,17,2,-36,-34,-26,-17,10
-17,-51,-98,-36,-25,-9,0,8
-27,1,127,0,-23,-11,-8,-23
0,-9,-76,-19,-56,1,9,-33
3,7,27,11,23,8,6,-7
-3,-46,-77,-4,-4,-8,2,41
10,-2,46,-9,-4,6,2,-11
-29,-33,-43,-23,17,-13,-24,-11
8,46,34,-17,-118,-36,-10,-16
45,40,-37,56,-58,23,19,61
-27,-18,40,54,19,25,-3,-37
18,-9,-91,-18,-47,-20,12,28
-2,9,114,-51,-7,-8,-14,-13
-13,-42,-51,-101,-55,-67,-47,-45
-17,12,-3,119,127,86,41,-9
-11,-18,48,27,11,19,6,-17
9,12,9,-40,-21,-12,-20,-7
-8,1,-123,-128,-87,-90,-36,-22
22,-13,-33,127,-56,82,58,44
-16,35,73,15,111,3,-24,-29
-1,-1,-12,-24,38,-2,-9,-26
-11,-15,-56,-5,47,-4,14,7
-18,-46,24,-80,-21,-22,-13,-5
5,-8,-22,-44,-53,-71,-31,35
57,38,-2,46,-51,27,50,53
-13,-7,25,68,12,17,2,-11
-5,-16,-46,-20,-23,-14,-26,20
-21,-23,-90,-50,-18,-20,-17,-36
-23,-5,41,-8,-11,23,34,-52
-32,31,-12,-5,4,2,22,-25
36,2,7,-1,-22,-24,-55,54
-5,-22,12,2,-5,-9,-24,-16
-2,-5,-53,-27,-16,1,26,0
-13,41,72,-74,-11,-28,-12,-22
-23,-39,-128,-14,1,-23,-13,-31
37,-6,112,78,25,34,10,40
9,11,-30,-1,40,-1,-10,-4
-20,20,-11,-73,43,-25,-21,-24
-11,-34,-128,-42,-128,-36,34,-27
-4,27,-91,44,-81,-14,-14,14
14,43,127,81,87,45,-24,1
-29,-37,-39,-12,38,-10,-30,-43
-19,8,-46,-26,-63,-28,-3,-16
13,-6,11,-21,-13,-9,8,9
-14,-50,-29,-128,-18,-49,-33,-30
11,27,-34,67,-99,24,23,4
21,6,25,47,96,16,-2,12
1,17,-106,-75,-20,-28,-16,4
-20,-6,60,-15,32,13,17,7
-6,3,-12,127,43,48,22,0
20,8,75,39,37,5,-22,8
14,-26,2,-18,29,-9,-9,28
-20,-21,-32,-39,-25,-22,-39,-59
-43,39,-123,-68,18,-26,-11,-23
-1,20,55,36,-78,17,13,-29
19,-2,-2,5,31,-4,-5,30
9,20,14,-13,-18,-13,-6,6
-10,-27,19,-14,-7,-8,0,-19
-1,-20,-74,1,2,13,-1,-8
-11,-2,3,-6,-4,0,-2,-12
1,32,39,4,-13,-9,-4,-12
-63,-11,-32,-28,-9,-10,-52,-74
39,1,7,-128,87,-65,-42,87
40,-31,-39,44,-128,27,73,67
-4,-53,-54,89,92,28,14,50
-5,45,55,29,84,13,1,-10
-12,-15,-15,-41,-32,-22,-18,-28
-19,3,45,-31,-32,-20,-4,-24
-33,-10,-23,-30,-16,-19,-8,-33
2,-5,-56,-47,-76,-12,3,-8
-2,47,72,9,-19,-9,-3,-5
-5,30,-6,21,-21,1,7,-7
-1,-5,47,5,-57,-11,-12,0
-10,-20,-30,20,81,27,13,-2
-4,-6,-20,-13,-9,-11,-6,11
18,-21,-25,-45,76,-4,1,-6
-26,-25,-93,-78,-128,-45,1,-48
34,36,54,127,95,94,17,62
-4,5,0,22,2,-5,-17,-16
39,13,32,1,8,3,-5,39
-17,-12,61,-46,-15,-4,13,-8
-24,-6,-111,-81,-120,-72,-68,-32
-29,-43,127,57,-38,3,5,-50
25,22,-10,31,-19,25,21,-15
-22,9,-8,24,54,16,21,53
32,-18,13,-47,0,-23,-27,0
5,44,-19,-45,-67,-26,2,15
-16,10,6,53,-9,20,18,-17
-33,-7,-41,-67,97,-6,-10,-41
17,-1,-10,16,-128,3,14,38
-23,-24,-22,32,78,14,-1,-22
9,-33,51,-42,17,-24,-22,-9
-3,-24,-5,9,-82,-10,4,-24
3,-9,-2,28,126,35,11,-3
20,28,-70,-23,-56,-11,-11,68
-15,34,84,-60,22,-14,-19,-27
-32,3,-31,-86,-128,-70,-19,-101
30,5,30,127,99,77,46,83
34,-4,28,32,45,8,-5,62
-5,-7,-80,-28,-6,-21,-35,2
-27,28,29,-26,-25,-13,6,-46
-2,3,-38,-24,2,-12,-22,-25
-18,-12,-14,-23,-57,-6,-9,-17
-3,-57,25,-52,-38,-15,33,-33
15,33,-29,87,-54,38,-8,39
15,38,-7,8,28,-2,-23,-6
-12,-26,-46,-70,61,-9,-9,-17
-8,-51,15,23,-128,-27,11,1
-3,43,40,72,127,17,5,-3
-10,-33,-19,-15,21,-11,1,-3
-46,0,-21,-30,-32,-15,-33,-72
23,-28,0,-48,-4,-10,-6,-40
-7,-23,-49,12,-128,-26,22,60
17,42,79,80,100,48,17,24
-18,-34,-41,5,86,18,3,2
22,14,-85,-21,-15,-13,-2,9
-3,0,2,-46,-33,-15,-12,-1
-49,-31,2,-20,35,4,-4,-127
-10,-1,35,-16,-27,-11,67,18
34,42,-27,23,-3,-1,-35,127
16,5,62,59,58,17,-29,24
-9,-7,-3,0,28,8,6,-34
-56,-36,-47,-96,-104,-36,22,-36
-6,34,-45,62,-45,45,-11,-35
-3,11,-25,-32,72,-5,-42,17
9,-53,10,30,-128,-19,-1,-20
-1,-17,44,-42,-38,-22,5,6
5,43,17,25,127,37,5,30
9,-15,-54,54,-12,5,16,-3
-22,-28,-28,-49,37,-6,-9,-7
-11,-10,-28,-71,-66,-25,-22,-36
-2,21,66,30,-128,-34,17,8
15,57,-12,-13,73,16,1,7
-32,-48,-4,-9,25,-7,-5,-22
-28,-1,13,-1,-106,4,6,-48
-4,-35,-105,-86,-128,-68,-15,-54
32,-18,56,127,105,60,6,89
-13,-8,-58,-20,16,-16,-24,-7
-14,6,29,-14,-4,-15,-14,-23
-9,-13,27,-12,-7,-3,12,-16
-38,30,17,-51,-36,-27,-35,-85
-55,-30,10,-27,27,-8,17,-28
57,-27,-82,-56,-111,-59,-64,79
57,46,56,62,11,55,53,101
3,1,-27,30,88,17,9,46
-21,-24,63,29,29,4,-2,-26
-44,-10,-52,-67,30,-25,-27,-52
21,6,41,-14,-128,-41,11,-14
10,34,-14,74,127,57,22,13
8,-5,-6,-6,20,-2,-6,-1
-36,-18,-20,-24,-6,-6,-10,-32
5,2,-11,-22,15,-9,-14,-12
21,6,-58,-9,-27,-12,-1,7
-2,-8,-25,2,-9,1,-4,-7
-10,66,127,19,-8,-3,-10,7
-15,-47,-8,-91,-10,-23,-7,-3
-25,-38,-72,-27,-128,-37,-5,-42
20,47,84,127,127,112,57,13
28,4,-1,0,-33,2,2,-7
9,14,-64,-25,19,0,7,28
-7,-22,35,-23,-43,-22,-14,4
-2,-12,-61,-46,18,-11,-21,15
-8,22,78,-23,-86,-41,-35,-9
4,-51,-71,-11,1,4,-17,-46
-37,-5,34,-4,-45,-16,0,-21
39,10,6,35,89,35,49,72
28,12,26,15,4,-2,-13,37
0,5,-53,-29,-6,-1,4,-5
-12,10,-17,-43,-14,-13,-5,10
-39,-15,-68,-121,-29,-46,-46,-81
-20,-25,-21,59,0,32,40,-27
38,38,67,127,127,108,58,42
10,11,-5,-40,-1,-10,-37,2
-35,-7,33,-33,-24,-16,7,-50
-4,-55,-16,-36,-19,-22,-20,-12
-2,10,-10,-23,-65,-22,-27,34
1,31,-87,-14,40,10,5,-9
7,-23,-30,-3,7,1,3,9
-6,9,66,-67,-14,-23,10,8
-9,-33,-89,75,127,54,24,-3
3,42,127,64,-11,-6,-19,-14
-3,21,22,0,11,-7,-2,-7
-11,-43,-13,-9,5,0,15,-43
0,47,-26,-43,59,-7,-20,-5
24,47,-1,-22,-128,-49,-46,13
17,-20,-9,57,42,37,40,38
-8,-47,-86,-13,-15,-7,-40,-46
-35,28,127,13,18,-2,34,-93
27,5,22,-65,-34,-27,-2,120
15,-12,-65,35,14,28,5,63
-27,14,-33,-10,-14,-11,-17,-23
-36,5,36,-97,60,-48,-52,-106
45,-34,-128,-99,-128,-22,42,42
34,39,109,127,43,59,37,26
-15,-9,54,27,1,-14,-27,-25
-5,-10,65,-18,35,-10,-21,-4
-19,-13,-42,-53,-20,-13,-16,-23
-2,4,-8,-33,-14,-20,-10,0
-4,4,-20,-32,-120,-15,1,-12
-35,-32,-4,-33,-42,-32,-2,-20
-31,-76,-54,-30,68,7,-19,-32
-16,30,-101,33,-128,8,36,-58
98,66,102,69,5,9,-26,127
24,11,-17,-17,6,-6,-28,28
-12,-14,88,-22,-13,-14,-3,-29
-49,-36,-44,-35,-21,-17,-15,-68
13,38,-13,-16,-2,-12,-30,-19
-33,-6,-30,-19,-63,-15,6,-54
4,-9,-11,-2,-51,-3,18,84
21,35,62,25,66,0,0,18
1,-46,78,-6,-47,-2,11,6
-3,20,27,29,60,2,7,-17
9,23,2,-54,12,-20,-28,8
18,-1,-44,-42,-128,-26,12,30
-42,-62,-72,72,127,32,7,-50
-8,8,73,-11,-83,-34,-30,-42
37,38,75,-5,-26,-3,4,49
-12,1,-21,-7,-6,-3,-1,-32
-30,-44,-38,-90,112,-30,-47,-20
-14,-4,19,-54,-128,-117,6,-8
32,17,21,127,127,127,49,34
-16,-39,-50,-29,-50,-18,-19,-4
-27,-20,-9,-32,-33,-13,6,-37
-8,-15,-24,-24,-39,-5,18,-49
-15,-30,-114,-95,-98,-46,-60,24
20,38,107,79,125,3,-16,47
21,48,127,41,-15,-3,5,11
9,-4,9,-3,1,2,14,2
-10,-23,-44,-22,-15,-7,2,-10
-27,-17,-81,-16,26,9,22,-37
-5,25,102,-6,-71,-19,-10,1
3,-3,-25,-2,-3,-1,-13,-16
-41,-19,13,-3,82,-2,-15,-45
-4,26,-24,-97,-128,-67,-20,-33
70,41,30,127,127,87,34,52
0,-22,-8,32,73,15,-4,36
-28,-32,-94,-113,-99,-44,-22,-21
-2,-16,-29,50,-93,-9,-5,-28
32,35,45,91,113,60,30,50
3,27,65,3,-25,-9,-14,-19
-41,-26,-53,-30,-73,-12,30,-56
8,-1,0,15,104,24,3,49
-31,-6,24,-113,-5,-57,-53,-55
-5,-24,-90,-27,-128,-53,-15,20
28,27,8,84,-7,40,13,32
1,18,-29,-5,-10,-11,-14,-17
-14,10,50,-11,-45,-3,16,20
1,-13,-20,-32,-26,-10,-6,-51
0,-40,-64,-22,-2,1,8,6
-7,23,54,11,39,-7,-3,-11
1,24,-1,-10,-51,-16,-9,-2
22,1,75,26,-19,21,16,19
-5,-29,-72,-9,44,7,-1,-31
3,52,127,12,-18,-2,15,17
-21,-25,5,-11,-28,-2,-13,-30
-11,-2,-43,-108,16,-27,-27,-17
-6,3,-71,-9,-128,-40,-28,2
17,-7,-5,41,66,35,38,28
1,19,51,112,127,67,36,-19
-18,14,-19,-44,-71,-16,-19,-4
-62,-55,-50,31,51,11,-30,-72
61,26,-30,-58,-110,-27,17,41
21,28,18,-6,86,-30,-20,63
-5,-10,-31,-38,127,44,13,-7
-9,-16,-26,26,-20,-6,14,14
-28,-21,13,-60,-128,-36,-29,-53
7,-5,72,127,85,76,66,1
-5,38,2,62,73,31,-2,12
-4,1,-13,-54,-24,-31,-2,16
22,-11,20,-34,-60,-39,-8,20
-1,-20,-76,-8,15,-11,-13,-5
-33,-22,16,-72,-68,-34,-31,-43
0,8,-11,30,43,2,15,9
2,-25,-27,-67,-128,-31,-4,-7
1,15,73,95,127,57,11,-14
9,31,-46,-16,21,4,-18,-25
-18,-44,-2,-84,-18,-37,-38,-14
25,0,57,29,-128,12,31,50
1,-19,-26,27,12,7,-3,-22
-3,34,-91,-36,51,-3,-16,-2
-19,1,76,-1,-31,-16,-15,-33
10,-22,45,61,-3,-1,5,5
-29,6,17,-24,65,-4,-20,-26
18,19,7,-63,-109,-36,-19,41
13,-14,-46,-54,-113,-34,-7,31
17,66,29,70,-128,31,42,3
-6,-39,-63,70,124,34,12,22
-23,-57,-51,-27,1,-14,4,-50
-1,12,28,-31,-23,-26,-29,4
0,-16,84,-25,-58,-30,-18,23
-34,10,-25,10,-5,22,4,-51
-12,-4,50,-4,-18,-6,5,-65
84,3,61,-9,-5,0,18,101
-6,-28,-56,-112,88,-18,-9,-11
-18,3,22,45,-128,-8,30,-7
-14,6,14,76,127,30,-23,12
25,-14,56,14,47,-1,-3,-42
24,15,-8,-22,25,-11,-3,55
-5,-26,-11,-20,-89,-27,-11,5
-20,-2,-45,-11,-65,-10,-5,-34
-33,-15,26,-4,25,5,-7,-47
38,27,-128,-60,127,26,4,27
35,44,127,78,-128,-25,28,108
-6,-23,-12,93,113,58,22,9
-7,-47,-31,-73,6,-24,-16,-29
-12,31,-16,23,-128,-10,-14,-29
23,27,-35,21,57,10,29,-6
-10,-45,-52,-32,44,-4,-11,32
-24,9,-23,-35,-128,-47,-57,-41
2,-8,2,-121,24,-48,-48,5
36,-28,-30,127,-41,36,69,48
1,56,26,127,127,109,31,11
-22,-25,-27,-2,111,22,-5,-24
-58,-5,69,-49,2,-25,-30,-51
6,-2,-16,-72,-67,-43,-23,-19
65,39,-14,52,-65,4,27,24
9,7,-18,-11,25,-1,-10,32
-13,-29,-70,-58,24,-17,-26,-15
-14,-2,0,-75,-59,-41,20,-28
9,-8,84,127,127,82,20,52
17,8,18,23,-123,12,2,13
-18,-7,-11,-3,-7,-4,2,-20
-24,-29,-46,-26,-22,-12,0,-35
-2,7,-43,-69,-33,-24,-23,40
-14,-1,53,20,-89,-1,5,-22
16,-11,32,66,127,32,23,80
-14,-24,-27,-21,-12,-12,-19,-47
-7,38,5,-10,-6,0,17,5
-10,15,-39,-23,-5,-3,-2,-46
20,-59,20,-15,-36,-13,-37,-1
-12,13,-34,-61,109,5,-6,69
21,-12,-78,25,-128,-20,12,-15
6,23,125,47,22,12,-7,3
-13,4,-33,-6,39,18,40,-20
-3,-7,14,-38,55,-22,-35,-12
-8,10,-13,-67,-128,-49,-27,-11
16,-25,-40,34,-31,9,22,37
-23,-40,-7,24,120,30,26,1
-11,31,-24,43,82,27,5,-24
11,-46,112,-22,-96,-47,1,25
-5,25,-14,28,-128,12,4,-1
0,22,19,-32,-72,-24,-7,-14
-5,-3,-13,38,98,25,6,-3
-16,-21,-4,-27,-14,-31,-47,-28
-52,-4,-9,-128,85,-32,-46,-49
61,15,-71,51,-128,-35,59,51
10,29,100,79,127,36,13,26
-16,13,-21,-53,-32,-7,-15,-17
-22,-33,-60,-70,23,-1,-13,-61
-20,-66,-67,-128,-128,-104,-63,-26
13,1,11,127,127,91,52,55
6,11,37,42,83,18,9,31
13,8,-36,-21,-25,-22,-35,6
-14,-25,-32,-48,-10,-15,-17,-5
-8,16,27,-81,-40,-54,-24,-19
5,10,-39,35,-128,7,30,4
-10,-3,65,48,62,32,24,-38
-12,-14,-4,-11,-20,-14,-20,-15
-31,-16,-105,-41,21,-13,-12,-42
15,-6,103,-15,-128,-46,-26,22
28,31,53,48,88,31,3,42
10,-21,-80,-34,-51,-14,-17,7
-19,-19,-43,-42,41,-1,-6,-36
-39,-49,-18,18,-128,-31,-10,-48
41,63,100,51,-4,8,5,61
29,70,5,-23,-10,-3,-9,-12
-30,-4,-54,-38,17,1,-4,-20
-8,-54,-21,-80,25,-36,-28,-13
-31,-26,-100,16,-128,-54,-2,-43
12,24,65,107,127,71,19,15
8,40,110,37,87,16,-5,8
-13,-14,-13,-29,-51,-15,3,-6
-20,-36,-55,-32,-44,-12,-3,-14
-1,-24,-11,-22,-35,-18,-10,-13
-12,-60,-60,-71,-10,-32,-20,-14
7,51,20,17,-45,7,18,20
5,0,-54,7,-71,0,8,22
-12,-8,63,16,8,5,-4,-19
-13,-20,-47,-22,-42,-3,2,-45
-18,-28,-13,-17,13,-9,9,-1
-13,-22,33,10,77,5,-8,7
23,2,-19,-36,65,-16,-25,-35
-4,8,-20,59,-67,26,54,9
18,39,53,74,127,48,-17,57
-9,4,-24,-24,-1,-18,-21,-16
-4,-10,-8,-85,-119,-48,-22,-16
-12,5,-45,39,127,51,41,-10
12,-15,23,-6,2,-8,7,23
26,1,56,11,-26,-4,2,25
-15,-1,-25,-42,12,-19,-28,-20
-24,-27,19,-128,-128,-86,-11,-31
-5,38,-4,127,127,127,64,-1
34,1,-11,16,9,7,2,6
-7,-6,9,-38,-50,-13,-21,-25
-4,-44,-74,-48,-36,-25,-3,34
9,7,19,-59,7,-4,-7,2
-5,15,23,77,3,-21,17,40
9,20,10,43,124,46,25,5
-1,-14,1,-27,15,-6,-15,-32
18,9,-21,2,108,5,-1,36
-47,-32,-116,-38,-118,-25,-15,-72
3,10,93,12,25,-1,-20,-6
30,54,20,34,63,22,17,33
-6,-7,-1,-13,-8,-9,-5,-15
-18,-24,-80,-70,1,-33,3,-10
-30,-22,-10,27,-39,9,-10,-24
32,21,89,127,127,96,19,29
0,12,1,-8,-70,-6,5,-19
-25,-10,-26,-13,-39,-3,5,-12
2,1,-71,-73,6,-26,-23,-8
-17,-12,-2,-14,-128,-25,-2,-6
49,25,37,23,16,4,32,57
6,8,-21,-6,24,8,-6,34
0,-11,73,-3,26,-16,-39,-20
-19,-27,-49,-67,-43,-13,-1,-38
-23,-25,-25,84,5,24,20,1
-9,-33,-35,-15,43,-10,-76,-41
16,27,21,-15,30,-14,-11,27
-23,34,4,-128,-20,-65,-4,-37
33,8,7,90,-75,69,75,59
24,13,2,127,127,86,-2,19
1,22,20,16,69,13,-12,12
-9,-46,2,-44,-14,-15,-3,-4
-12,-8,-19,-43,-76,-21,6,-11
-20,-13,-17,-55,14,-20,-18,-31
-22,-30,-14,-75,-127,-56,-37,-39
-5,3,30,112,38,38,31,11
23,26,-46,8,75,6,16,45
17,-5,17,-27,7,-7,-15,-15
-18,-30,-21,-49,-73,-29,-9,-10
-4,11,0,15,31,15,4,-5
2,9,-29,18,19,25,45,20
-11,2,83,39,10,-7,-5,-22
-3,-9,-38,-9,-49,-17,-28,6
1,-39,-42,-18,-27,-2,7,13
13,3,3,-40,-1,-20,-10,-33
-4,52,21,9,-75,-14,-1,4
2,7,-13,41,80,53,12,14
-10,-19,54,4,0,-5,-16,-24
-2,-12,-33,6,10,-1,8,44
2,6,42,-27,-74,-23,-1,-30
15,39,61,24,44,20,41,19
-7,-2,12,17,12,0,-21,2
14,-14,-108,-6,75,1,-33,9
-8,-15,106,12,-113,-22,-1,-7
-12,20,-16,21,86,19,19,1
-9,-5,35,10,50,18,18,-13
-18,-4,34,-59,40,-12,-3,-41
-11,-20,-56,-10,-85,-4,16,17
34,17,10,29,117,24,-4,32
6,-1,84,110,58,60,45,19
-9,-23,-55,5,63,10,-4,-12
-16,6,39,-39,-12,-18,-11,-12
-17,-19,-41,-35,-48,-24,-17,-24
-29,0,2,-66,-78,-32,-1,-67
-7,36,32,77,127,61,68,-19
-2,-14,12,-18,13,-16,-45,46
48,-14,2,-18,-128,-20,-13,72
-3,6,-11,3,-8,-9,-34,-8
17,24,3,-50,87,-7,-9,5
-4,-4,3,3,-128,-37,33,10
-31,-13,55,109,127,92,40,6
17,8,-28,9,18,-1,-20,-27
12,6,-16,-59,-76,-36,-14,25
-1,-18,-11,30,82,28,4,-9
-21,-25,-79,-84,-100,-76,-26,-27
17,53,87,93,127,106,45,12
1,-14,-9,-35,-90,-28,6,0
-2,39,71,104,20,41,22,-36
-24,12,1,-21,12,-4,-6,-11
-7,-20,-23,-31,-21,-40,-60,13
13,-12,-57,-42,29,-6,-5,17
8,-2,9,-47,46,-15,4,-4
-9,-11,65,56,-128,0,-4,3
-35,7,65,42,76,12,15,-44
18,-21,19,-5,11,-2,-1,49
24,-5,-38,-38,-5,-12,-17,38
-13,19,-23,-116,-39,-54,-55,-12
-6,33,-79,29,-128,8,21,-38
5,9,32,86,115,39,17,23
0,-35,12,-8,8,-7,-4,30
-5,-14,-20,-15,-8,6,-2,-31
-18,-1,-19,-18,-10,-9,9,-41
18,-9,-9,-22,-29,-13,-6,29
18,24,40,-5,-23,-10,2,20
8,11,0,-7,-24,-6,6,-3
-12,-32,-83,-14,1,0,12,-19
-35,-10,69,-65,5,-32,-17,-85
40,64,102,113,-11,31,24,42
1,-8,21,33,5,14,-5,56
-55,-26,-86,-28,-29,-5,5,-20
15,-27,50,-80,-62,-32,-10,10
12,46,-50,66,34,28,14,9
-12,-57,36,-52,-57,-30,-1,-6
11,-6,-58,116,127,91,50,19
8,32,1,16,14,12,10,7
-24,13,32,-56,37,-27,-29,-30
-10,-45,-111,-99,-128,-57,-3,-21
-3,0,127,127,127,54,27,39
3,-8,-41,16,79,14,-4,8
4,24,-18,-25,21,-12,-7,-15
-20,-4,7,-72,8,-40,17,-7
11,-9,-28,-22,20,29,-10,39
2,-19,-9,32,10,-45,-19,9
4,20,38,91,93,67,26,-3
-26,-13,-11,-2,24,4,15,-8
-26,21,-13,-97,41,-30,-31,-65
73,25,49,29,-88,21,63,110
-4,-40,-110,26,12,24,7,24
17,30,58,-1,-8,-15,-22,-7
-20,-9,11,-28,18,-7,-4,-20
-39,-17,-4,-73,-128,-48,16,-62
21,10,-14,100,127,73,-6,49
10,5,18,10,41,-5,-11,24
-14,2,-54,-14,47,6,-12,2
3,-29,46,-15,-50,-23,-4,-15
0,-11,-6,11,-5,15,9,-10
-5,7,12,-31,109,12,-6,-2
-19,-19,-61,-73,97,-21,-26,-16
7,5,56,102,-128,-7,49,23
19,-11,10,99,127,84,46,27
5,-9,-5,-30,36,-4,-13,-19
-2,33,-56,-41,1,-22,-38,-25
-22,-10,-30,-99,-18,-52,-34,-24
10,-30,12,-41,-128,-7,30,4
-9,-9,-3,78,127,49,9,11
8,7,-37,65,127,34,-12,5
-44,-18,34,-50,-57,-20,-13,-62
36,37,-9,25,40,-1,-10,47
32,4,9,-4,-42,-7,5,80
1,4,19,-28,-18,2,-6,1
-21,-20,5,-8,-10,-4,4,-30
-20,-24,-7,-17,-24,-9,4,-71
-15,-16,-13,4,-128,0,10,36
19,24,-38,5,-34,-2,-22,5
-8,-22,-40,-13,15,-5,-20,-22
11,-5,-10,-33,-10,-22,23,-9
-3,-6,-27,6,22,1,-17,-35
12,12,30,21,-110,-27,-43,44
-6,17,-2,27,11,27,23,8
-3,-28,-20,87,127,48,26,-2
-23,7,81,-24,-10,-29,-24,-22
-1,7,82,-51,127,14,-19,-16
9,48,16,-60,-128,-65,10,14
-9,-33,-8,5,60,19,12,-14
22,-15,40,118,127,63,30,35
-6,-17,-47,18,90,20,-17,1
-30,-34,-23,-45,-57,-18,12,-56
0,25,-5,-55,-62,-25,-5,17
16,28,24,8,-80,-41,-71,16
0,8,20,44,106,21,-4,-1
-13,-28,-63,-38,-36,-15,0,-4
-17,-43,-25,-11,-11,8,50,-4
-7,16,127,0,-55,-26,-61,-43
7,31,-1,2,-23,-18,-25,1
5,-2,-121,-18,-1,7,20,28
-12,3,85,-3,-4,-3,8,2
-14,-22,-3,-24,74,-6,-10,-35
-18,-35,-39,-29,-128,-13,19,2
30,15,-41,48,-3,22,30,45
-8,-2,11,2,39,-2,0,27
2,-23,108,-28,49,-3,7,8
-16,2,-25,-65,-127,-42,-26,-29
9,37,104,51,-128,-17,-7,-20
-4,-2,5,50,58,23,3,3
-23,-2,-47,-37,127,21,-14,-22
-26,-17,-5,26,46,7,32,-44
55,54,81,30,-128,-10,41,60
22,-54,23,-30,1,0,-53,22
-3,-15,-55,-35,29,-7,-13,-3
-32,-19,8,-52,-10,-30,-13,-15
7,35,-56,-7,-128,-25,21,0
8,8,127,72,127,40,14,0
-5,12,-21,1,113,11,-5,-28
-5,-3,-19,-35,-78,-25,-8,26
-11,-38,-49,-6,8,0,-19,-13
-20,-42,-13,6,2,-10,-11,-17
30,97,-3,-84,35,-32,-14,9
17,6,33,81,-128,39,47,11
-14,-27,-20,8,32,1,-10,-6
-14,-17,0,-21,-2,-16,-34,6
-21,-1,17,-7,30,6,-3,-76
-7,-41,-54,-24,-28,2,7,-12
7,16,22,8,-47,-9,24,28
44,37,5,18,97,3,-46,62
-16,-9,-16,-103,-128,-63,4,-36
22,10,23,127,127,82,12,42
-17,-16,5,80,-60,33,8,-3
12,11,-69,-84,-44,-29,-16,-3
-15,-8,13,0,-78,-7,-4,-35
-32,-26,-1,-83,78,-18,-4,-61
9,20,-51,49,-128,-15,29,54
46,-21,101,65,55,16,-19,64
-21,31,-3,32,76,2,-5,-29
-24,-3,28,-37,-22,-25,-24,-48
0,-2,-82,-42,-9,5,32,33
1,-33,33,-26,-79,-32,-5,-2
8,30,-14,8,39,12,5,30
-19,-22,-15,-26,-5,12,45,-43
22,-16,-37,-17,6,-19,-21,36
-7,0,-37,5,-65,3,-13,4
-11,18,127,7,-37,-7,3,-31
17,2,-42,3,25,15,15,2
0,-5,65,3,11,0,-16,22
-15,-46,-52,-30,0,-7,6,-13
-2,2,-67,4,-28,-25,-4,-2
-6,39,-53,8,-21,38,23,-16
-11,-11,127,87,127,10,-14,-28
41,15,50,-8,-66,-1,14,26
9,-46,-97,-43,-25,7,54,12
3,-15,56,-27,30,-23,-59,37
-13,12,-18,-31,-128,-20,-31,-13
-23,14,-27,44,127,27,14,-34
-14,20,-6,-15,7,-4,2,-40
-13,-16,47,21,-128,-41,-4,-21
27,26,30,120,127,127,67,63
-3,-17,-81,-35,-17,-12,-13,40
-8,-18,-4,-128,-36,-49,-22,0
-13,-7,89,107,-27,32,30,-27
1,-22,-90,22,54,23,14,6
12,15,72,-29,17,-9,-12,37
-6,-2,-13,11,72,-17,-10,-25
-37,8,45,-8,-15,-16,-4,-37
35,35,47,-37,-53,5,14,40
-5,-13,-99,25,57,31,75,-23
-7,-11,56,-12,-35,-19,-35,-10
-17,-21,18,-14,-9,-15,-31,-5
26,7,1,16,-5,1,-6,20
9,-14,-68,0,60,23,16,53
-21,-32,-6,-10,-33,3,0,-19
6,11,57,-66,-4,-43,-36,-26
1,17,-91,-39,-128,-56,14,71
17,12,41,127,127,100,31,3
0,52,1,-27,-50,-27,-17,-39
11,-38,7,21,127,18,-1,-26
5,15,4,9,2,45,13,43
-35,-26,18,-78,-128,-52,4,-67
11,-52,-128,34,127,16,-29,16
-40,2,-30,-39,-41,39,24,-57
32,35,32,127,2,57,59,83
19,-15,54,18,127,-6,-18,78
-23,22,12,-40,-14,-28,-17,-22
-36,-52,-110,-46,-4,4,19,-69
-5,-14,49,-52,-38,-23,-13,-39
12,9,-79,-24,-20,-12,4,43
15,-29,-11,-28,-17,-5,-18,6
47,107,127,28,-27,-11,-7,17
-6,-51,-115,-21,-9,10,21,22
-21,7,4,8,-19,-7,-32,-31
-25,-53,75,6,5,7,1,-19
6,4,-15,-11,-21,-17,-37,-13
0,21,37,5,-24,-12,-11,-9
-8,4,-20,6,38,8,1,-14
-21,-15,-33,4,-17,9,37,-6
0,-14,-10,-3,-1,2,-4,4
12,-17,-59,-34,43,-13,-29,-58
7,5,66,-6,-102,-25,33,84
-21,-11,0,66,127,57,29,-42
23,0,9,-8,-128,-15,-33,20
31,9,-27,29,53,13,-26,71
-12,8,-3,20,12,10,4,-45
-8,-31,83,-90,-60,-56,-20,-4
-10,3,-39,50,37,63,28,-23
4,13,22,10,70,12,13,8
10,0,-30,-48,-128,-41,-26,3
-5,17,5,19,82,2,0,-33
-13,-71,-28,-61,-25,-13,-28,-10
1,51,-27,-28,-128,-64,14,15
28,23,9,127,127,102,34,66
-42,3,-61,-48,-3,-31,-35,-45
-18,12,79,-37,-11,-9,3,-40
12,-22,48,-24,-8,-9,10,23
18,-36,-25,-29,-21,-28,-26,9
-8,-6,-66,-70,-83,-34,-12,-14
-19,-29,3,26,31,39,1,5
25,17,52,91,69,26,-1,5
1,17,4,36,93,11,5,7
2,-11,-8,2,10,-2,-9,-16
-2,-19,-8,-20,-23,-2,-5,-13
15,40,8,-26,-21,-5,5,10
7,14,33,-37,31,-25,-14,49
0,27,51,36,-122,10,16,-1
-9,-13,-56,36,15,20,13,-8
2,31,100,4,21,1,12,-35
-21,-39,-42,-37,-36,-11,-34,-9
14,-24,-61,0,-19,-4,-38,36
0,18,127,0,33,-1,-13,7
-23,2,29,-50,-9,-44,-28,-86
21,-25,-109,54,127,35,31,2
40,-13,-128,19,96,36,21,58
3,43,127,65,66,-16,-17,22
1,9,13,-99,-128,-43,23,1
-23,19,22,127,127,87,27,1
-18,-71,-19,-8,97,-10,-53,-37
-19,6,-128,-100,-26,-45,-4,0
6,-39,47,96,36,38,-10,-16
-13,0,17,-52,63,-10,18,-20
17,46,14,-14,-128,-58,-45,34
15,44,3,85,127,45,22,3
-32,-34,-11,-16,-33,-20,-27,-65
-17,-8,52,-9,-28,-7,9,-8
3,4,16,-16,-29,-15,-6,24
15,-13,-69,-36,26,5,33,51
7,-23,16,-11,-80,-14,-38,28
-12,0,19,-6,-35,-16,-16,2
7,56,0,37,-3,11,12,-42
43,-24,-27,-18,7,-6,-8,22
-1,-18,-25,-5,-28,-3,10,20
-12,-2,-37,-5,7,4,1,-9
-52,-24,56,-5,6,-2,3,-59
-6,63,52,-48,21,-35,-15,-53
30,-30,31,-9,-128,-1,4,24
49,11,58,120,127,55,54,92
-5,17,-2,-4,-4,-17,-30,-19
-21,-8,-17,-12,-16,-18,-17,-31
-11,10,-11,-34,20,-2,7,-33
-9,-9,2,-20,-23,-14,3,4
-10,-11,-19,26,13,6,6,-14
-7,-7,4,-106,-40,-65,-44,-17
1,-14,-73,15,-23,46,30,25
21,-2,17,127,127,62,29,42
8,39,57,0,15,-2,-15,4
-21,-27,-50,-47,-25,-15,-16,-46
-15,-23,-33,-19,-34,-10,9,-28
-29,-66,-65,-66,14,-16,-26,8
45,49,120,-38,-128,-43,-4,31
31,-3,-51,58,49,19,21,39
-13,-10,-92,-10,18,16,13,-5
-6,-28,62,31,10,4,9,6
14,26,0,-21,10,-11,-26,23
-14,-4,13,-24,-110,-27,-4,-48
3,-21,3,37,96,30,34,47
-10,-15,-62,-22,-2,-2,-1,-23
-12,11,-51,-22,-77,-6,20,-43
13,-4,-19,-25,52,6,-2,19
32,9,99,38,-128,-24,-77,63
-6,-32,-7,35,72,22,3,3
-23,9,-21,-5,39,4,7,-23
0,34,-63,-29,-56,-6,-1,-32
0,6,-50,-44,-126,-37,-2,2
-20,-51,36,14,6,9,11,-3
-14,-37,-38,-46,114,-11,-19,-54
13,24,18,-17,-128,-68,-1,10
24,40,8,127,127,127,57,54
-10,-24,-21,-23,-4,6,2,-32
-10,-9,39,-36,10,1,26,6
-8,1,-20,-44,-98,-39,-49,8
-22,-15,21,-23,127,20,-30,-14
-5,11,-19,-85,-128,-59,52,-40
51,15,-23,127,127,127,37,102
-8,-17,12,-11,4,-15,-42,12
17,30,29,-31,-3,-4,0,16
-31,-14,-29,-24,-12,-11,12,-48
10,18,22,-17,-8,-12,-35,-25
2,-9,-2,-23,-24,-14,5,20
14,-38,-39,-14,-52,-5,-2,18
-11,-8,-71,26,-16,-8,4,-37
1,17,91,101,127,38,21,-18
1,9,51,-31,0,-12,-12,22
0,16,-40,16,-7,-5,-17,-33
-9,-16,10,-6,2,7,4,-1
-6,-38,-49,-83,61,-26,-35,-25
-2,25,59,-29,-128,-63,14,18
-24,16,29,102,127,83,34,-30
-8,-10,-51,-14,9,-5,-2,-25
-7,-37,-17,-17,15,-9,-40,-11
20,5,-19,-52,-3,-8,-6,59
-27,-12,53,-6,-54,-12,-10,-24
2,28,23,7,56,12,11,-9
12,-34,-96,-68,-7,-20,-8,-67
8,31,17,-68,8,-25,-26,57
13,15,124,127,104,121,58,10
10,-54,-116,-29,29,14,12,0
-3,9,40,-34,-50,-21,-10,0
-22,37,49,-30,-65,-21,-11,-44
-11,-35,-21,-15,11,-3,-9,2
-13,-40,-28,-66,47,-17,-8,-30
-8,15,-23,9,-128,-24,17,-18
2,53,17,10,36,-3,-1,45
34,-55,-49,81,127,59,33,50
-22,13,28,5,20,-2,1,-35
0,37,-9,-38,-18,-26,-27,8
-17,-14,-12,3,-36,12,-29,-50
-1,-7,20,-30,78,0,44,57
25,-5,-6,-2,-102,-7,-20,35
-18,-52,5,98,93,58,49,-17
46,13,-24,6,78,6,0,14
-14,38,-19,-12,-4,-13,-22,-20
-16,-9,94,-44,-25,-3,14,-16
-2,-19,-27,-5,-28,-15,-20,-15
-12,-24,-23,-11,-32,-11,-10,-8
3,15,48,-34,31,-27,-27,-25
-15,11,-49,-28,-128,-46,1,-40
16,4,-37,127,127,121,49,54
4,-19,-18,25,-39,7,-2,21
1,-16,75,-17,-34,-5,-2,0
-16,-52,-96,-32,-41,-22,-23,-20
-16,-18,-93,-46,-12,-20,-15,-20
-17,40,127,3,-2,-2,22,-30
43,41,5,-18,-25,-9,-14,29
-4,3,-24,-56,76,-5,-18,-28
-5,-15,-46,39,-128,-7,18,8
25,30,77,65,34,12,-4,41
-10,-4,-11,-8,95,31,21,-38
41,-17,-16,30,24,-6,-16,87
-20,-2,-93,-58,-8,-4,27,-40
-35,-40,64,-15,13,-3,-30,-26
24,31,14,-46,-66,-46,-58,3
4,16,-87,-2,-33,3,17,-15
-32,-25,33,62,2,38,51,12
38,-10,-57,-9,32,8,4,33
-11,8,111,-12,-74,-16,-22,-33
-31,-19,5,13,54,-2,-4,-21
11,-30,13,-35,64,-6,-18,31
-1,29,-85,-36,-84,-9,3,11
-10,7,65,10,-9,-6,-9,-24
8,-6,6,14,0,-2,28,-31
-3,-23,-125,15,24,1,-22,5
-20,-23,-32,-11,-26,-17,-6,-35
20,53,127,39,29,3,0,25
-7,22,20,-13,-21,-14,-14,1
-26,-28,-32,-33,-19,-5,4,-56
13,-28,-110,-29,-26,-16,-45,21
-12,-9,-40,-2,2,-11,-6,-19
-5,3,25,15,-44,0,1,16
2,17,63,8,7,17,33,2
-16,9,-36,7,3,7,6,-11
21,-17,-12,-23,-1,-5,-6,-5
-29,-28,-27,1,52,8,-5,7
2,7,-16,-91,-20,-57,-13,-16
60,61,9,127,127,114,70,49
-19,-39,-59,16,114,22,-21,-18
9,-25,-78,-49,12,1,-2,5
-20,-2,80,-18,-33,-18,2,22
-16,-33,-28,-93,-1,-14,1,-32
-8,-4,-25,-25,-120,-32,18,11
13,-45,14,20,-3,-4,-32,-35
8,30,2,119,127,93,35,68
14,-16,-46,-26,-122,-9,7,39
-21,15,-41,-14,0,-1,43,-10
-10,-4,1,-19,44,-3,-36,-22
35,10,90,72,51,41,1,39
-26,-22,-128,-29,36,6,27,-52
-8,-31,72,-28,11,-24,-45,-8
-10,3,-62,-89,65,-29,-38,6
-13,-2,-33,-4,-128,-26,21,-10
42,33,20,127,127,127,57,19
-43,36,35,-30,18,0,-13,-28
-34,-52,-4,-38,-9,-27,-28,-36
-20,-42,-128,-82,-128,-61,-9,-68
75,46,127,9,91,22,-7,83
18,-21,94,79,127,72,30,25
-22,35,-52,3,22,-7,-16,-44
-19,-9,-15,-62,-31,-22,-1,-35
20,2,-57,18,-30,6,8,48
-13,-34,-86,-19,51,-4,-12,-16
-27,15,118,14,-128,-26,-5,-3
61,26,-16,31,51,23,22,58
-19,5,44,-74,67,-17,-29,-28
0,-1,-32,-32,-128,-44,26,-34
7,4,-49,72,127,36,-10,63
-20,-35,10,19,72,11,17,-5
14,18,80,21,-31,1,-7,16
0,42,0,-27,-23,-13,-4,-55
-29,4,1,-19,-33,-12,22,0
10,-31,-27,-11,-6,5,-3,58
-5,-13,51,3,-7,-18,-24,-18
-8,31,-3,-6,7,7,5,-14
5,-14,-4,-7,-91,-8,-1,-1
-36,16,6,22,14,-2,-2,-28
11,-23,11,11,16,5,8,1
18,-10,20,-78,20,-23,-3,-3
4,29,-36,36,-78,17,27,23
-11,-28,35,27,-45,-5,-13,-41
-9,9,-58,46,127,28,20,43
42,17,11,-12,104,33,-6,19
-2,12,24,-28,-29,-13,-11,27
7,-7,-61,2,4,5,6,9
-16,21,118,-54,-49,-35,5,-29
-13,-4,30,114,127,68,33,-36
-1,-2,-115,-24,109,-6,-32,-10
-4,-18,-27,-15,-28,-16,-13,36
17,31,76,21,-99,-19,-14,-16
-12,16,-46,-30,-128,-48,9,13
20,-13,52,64,69,53,16,8
-22,-16,-7,-66,29,-11,-4,-56
-17,-15,-64,-18,-128,-44,-14,-30
18,34,-12,45,48,23,37,62
23,-17,6,13,31,4,-11,15
21,-2,-76,-12,7,-13,-5,-5
-21,-9,36,-28,-35,-16,-33,-3
-12,10,-40,-38,-5,-19,-26,-15
5,6,36,-3,-128,-15,22,7
33,25,18,75,122,51,15,44
-12,-29,-33,-18,-9,-5,-7,-20
7,6,-1,-7,8,2,13,-13
-8,-25,-57,-21,-2,-19,-33,6
0,-27,-118,-4,2,-7,-11,0
-13,1,127,28,-45,3,17,-11
-8,45,51,10,-31,16,28,11
4,-14,4,-7,33,0,-22,14
-12,-56,-51,-18,-83,-14,-8,-48
8,20,-83,-31,-28,-3,11,-11
4,23,-3,-22,7,6,11,47
-8,-13,53,2,-31,-29,-19,26
16,-29,3,-1,-128,-28,25,18
-9,-7,-14,91,127,30,-14,-2
-35,65,-70,-82,35,0,-8,-117
5,-1,87,43,14,6,51,35
21,-16,-11,3,-11,6,-21,61
-6,-17,-31,-24,-35,-16,-22,-19
-10,-22,-49,-89,71,-11,-14,-20
-39,-30,4,7,-128,-44,-11,-42
-15,-11,-75,-36,93,14,29,10
63,20,44,87,-103,36,3,24
-2,4,-90,-9,39,2,-17,-18
-20,17,33,10,-38,-14,-14,-28
4,-13,105,1,-17,-11,5,2
3,-49,-40,-38,-12,-8,4,38
-19,4,-36,-40,26,-4,-14,-28
16,-15,-29,-9,-37,-37,-4,8
-6,36,44,11,-29,13,-6,-5
-24,-22,-108,-43,14,-7,4,-49
13,35,101,93,-6,23,7,-28
41,-1,-13,13,56,8,-16,87
-30,-1,15,-5,-4,-3,3,22
-2,-54,-36,-10,17,1,-15,-59
-19,-14,-124,-128,32,-70,-1,-22
24,64,105,127,-128,48,45,26
71,32,126,125,127,92,31,127
-19,-6,29,-18,69,0,-2,2
-17,21,-13,-54,-29,-17,-13,-46
-19,-19,-80,-60,-52,-26,-9,-21
-22,-4,24,-49,-64,-39,-20,-19
8,-20,-65,2,23,22,15,-7
-25,-20,-12,6,-17,5,28,10
-21,-13,-33,-29,-30,-17,-28,-43
4,16,84,3,-44,-22,-4,-3
2,27,-48,14,1,11,4,-2
52,17,29,-3,6,0,-5,49
-10,-23,-29,-18,-21,-5,-7,-8
-6,-22,-83,-59,39,-14,-26,20
-55,-31,-75,-9,-128,-28,25,-128
-9,14,127,127,66,51,33,31
33,15,34,24,62,6,-36,61
6,28,17,-18,-16,-13,6,-34
-19,-22,5,28,6,1,-27,-22
51,61,-48,-74,-11,-22,7,71
2,-35,-8,24,-117,35,54,0
-7,-11,16,0,-50,-19,-39,-8
3,-2,-44,46,127,17,10,-6
-33,25,118,-39,-128,-42,-7,-71
-16,25,48,54,35,21,15,-38
26,-23,-87,9,24,-1,-18,67
-6,5,33,-34,-37,-9,9,-22
-23,-43,-51,-36,-22,-18,-10,-7
4,4,-39,13,-60,1,9,-11
-14,24,24,-80,3,-44,-14,-27
19,5,95,10,-128,-27,-13,42
-29,-36,-16,117,127,68,8,-57
-8,-14,-20,4,14,16,17,8
13,-22,8,-23,-55,-15,-15,-5
-15,11,-45,-48,-72,-36,-40,-25
27,27,61,4,8,-1,7,45
13,-14,-38,-28,-49,-7,4,15
-27,-23,-58,-30,-107,-32,-8,-20
-13,16,82,62,97,40,17,-84
2,50,82,3,-8,12,33,6
10,-60,-17,11,31,-12,-31,49
5,11,-43,-37,16,-15,-34,-44
-5,-30,-38,-93,71,-14,-32,48
-15,26,83,5,-128,-109,-20,-48
-26,-15,-13,127,127,127,69,-3
8,18,49,-32,-25,7,-9,3
-9,-14,-23,-19,-37,-6,7,-52
20,12,-27,-32,-53,-35,-38,-1
1,-7,-4,-34,-52,-23,-6,61
4,2,-22,-13,76,17,6,-30
-21,11,-6,-26,-16,-30,-4,-17
-6,-41,-11,21,-30,27,9,-44
-23,-27,8,-41,-47,-25,-30,-18
61,60,-5,83,72,37,35,75
-20,20,41,17,19,6,-4,-21
-7,-26,-101,-38,-44,-28,0,-43
5,18,127,-14,22,-21,-26,5
-2,13,-11,115,98,53,41,1
-10,13,9,25,34,-3,-24,-15
-14,-1,24,-98,-61,-27,22,13
-11,-34,-33,27,126,1,-61,15
-5,-24,-75,-59,26,-35,-29,-7
11,-25,14,-13,-128,-37,12,12
27,41,67,92,127,43,29,50
-29,-4,-63,-42,21,-17,-9,-48
22,26,-27,20,-53,18,18,3
-8,-26,71,23,8,10,21,11
-42,-12,-6,-18,-45,-11,-2,-11
-20,-17,41,-12,-53,-23,-34,-28
42,-10,-73,-41,-2,-5,-9,22
7,19,71,13,72,-2,-15,14
20,12,15,29,28,16,-4,20
-9,-36,-39,-8,-41,4,19,-15
0,57,-58,7,2,21,6,-34
-20,2,10,-116,-128,-74,-78,-31
10,51,-2,127,121,75,53,25
-20,2,10,-116,-128,-74,-78,-31
10,51,-2,127,121,75,53,25
-26,-42,36,54,55,32,12,-28
-4,-10,13,-15,-30,-16,0,-10
