Channel_1,Channel_2,Channel_3,Channel_4,Channel_5,Channel_6,Channel_7,Channel_8
16,4,-16,-6,-20,-35,-3,-17
-118,-9,-15,-7,22,10,-1,-16
12,-15,54,14,-8,12,5,1
18,-1,0,-1,-8,-22,-1,3
80,7,2,28,18,30,10,22
-39,24,33,4,-10,-17,-1,7
18,12,-13,-1,-75,13,-17,-22
-128,-48,-43,-36,4,-24,-13,-34
46,-16,-27,25,-44,-20,-7,-8
-1,-12,14,-16,-31,6,2,9
-6,-1,5,-8,61,-8,3,-11
-71,14,10,8,-16,6,3,-7
10,-12,24,-5,12,86,24,-29
-128,-29,-31,-5,-25,29,16,-25
-51,-2,-1,34,102,4,-1,11
23,1,-10,-7,19,1,-11,-1
36,7,3,7,10,-5,5,1
35,-1,20,-3,-2,-11,-5,-1
8,1,-5,-20,-69,-57,-15,-23
-128,-12,38,-3,17,0,-5,-48
6,6,16,-6,-18,-6,1,7
26,-2,-1,-9,-30,-11,-5,12
17,1,-10,-4,6,-1,-2,6
8,-1,-6,2,14,0,0,7
6,-2,-4,-4,26,2,1,7
0,0,-1,-2,-31,-1,2,5
-128,-31,-35,-15,-62,-27,-20,-24
76,-23,18,4,27,-31,-15,-37
76,9,33,9,24,6,1,2
47,-1,9,2,-8,-3,1,-31
-65,7,8,2,41,-20,4,0
36,10,5,4,-28,31,12,21
36,9,0,1,16,7,-5,24
5,6,-4,-14,-82,-16,1,-2
-50,-2,-3,9,55,-8,-3,-3
-3,-1,3,7,42,11,-15,3
17,12,4,3,-50,-4,8,21
53,0,-15,-13,-22,-12,4,1
-37,-11,-5,-7,6,14,0,5
41,1,-1,4,48,6,-1,-4
-128,-18,-14,5,-26,-3,-6,-32
53,3,69,10,-17,-20,-6,17
65,26,33,-4,8,26,3,10
-14,-27,-100,-24,60,-12,-13,-34
73,0,-32,1,-3,33,33,-8
-65,-7,56,-8,78,28,1,10
-30,-2,15,22,-128,18,-5,-21
16,-5,16,19,95,-8,-10,-14
24,2,-8,-8,-45,-28,-18,-4
37,8,-5,-13,-5,-13,2,14
21,10,8,-5,18,0,3,11
9,14,24,4,9,-2,3,11
0,0,-16,-2,10,2,3,6
-5,-11,-39,-10,4,6,8,4
-6,0,27,6,3,-2,12,1
-8,-6,2,4,-1,5,-3,3
-7,-1,-12,-3,0,-2,-12,-3
-1,0,9,0,-3,0,-1,5
16,0,8,2,-5,-4,-1,6
-20,2,8,8,-3,-2,4,-13
-20,-3,1,-7,-5,-2,-6,-17
6,-1,-7,-12,-4,-7,1,-3
0,2,4,-2,-5,-2,-5,2
-7,-3,-1,-2,-1,0,4,-8
-5,-2,-1,-2,-6,-1,-11,-2
-4,-3,-7,-3,19,-56,-15,1
4,-6,-13,-17,19,14,16,13
64,9,11,14,-6,62,48,51
126,24,28,39,42,47,7,55
8,51,-7,8,28,-6,-25,-28
-128,-61,35,-25,-88,-20,-21,-103
-30,-35,-32,-26,-19,-36,-25,-34
82,-49,-110,-18,27,-2,-6,3
-52,-6,3,-16,14,-1,1,-5
2,17,52,0,-27,-5,-2,6
35,-10,-115,-25,-1,2,3,16
21,14,16,7,4,3,8,17
8,12,18,7,2,6,7,9
1,7,15,7,24,6,2,7
-4,5,9,4,0,1,2,-3
-11,1,2,1,-2,4,-3,-1
-10,-3,-2,1,-19,-14,-3,-4
-13,0,4,-2,58,11,-2,-6
-10,-1,0,-16,-21,-60,2,-8
-7,-5,-11,-12,-52,63,-7,-2
-9,-3,3,3,37,47,-5,-1
-5,-3,0,4,-10,-31,2,3
-1,-3,6,36,24,-13,12,18
15,1,6,-4,-8,-4,-11,1
22,4,-30,-17,-128,-34,6,-3
-3,-5,-7,-14,45,-6,-27,-44
-3,8,73,17,-23,-3,-2,-6
-33,-15,-57,-30,2,1,2,-12
-24,3,-30,-1,17,1,-11,-3
43,-14,1,-11,2,-15,-3,37
-77,1,11,-10,32,28,8,-31
-70,-25,-36,4,14,3,1,-26
52,9,-16,-8,-28,-4,7,27
93,13,33,6,-4,6,7,16
-116,-7,4,8,-24,-3,-6,-20
5,-1,6,4,14,-28,-9,-1
39,7,-4,2,21,18,6,14
-1,0,7,-4,5,28,-3,-1
-2,1,-13,-4,34,-25,-4,-7
48,11,-1,4,-32,-32,-7,11
-6,9,14,-12,-32,20,5,1
-26,-18,-2,-7,16,-8,0,-6
11,-11,-52,-1,-8,10,-2,-6
-19,0,-2,4,16,-6,-4,-7
-8,-8,5,-8,-10,-8,-10,-9
13,2,2,-1,9,3,3,5
6,1,10,2,-12,-12,-1,4
5,2,3,0,4,7,12,2
0,-1,-4,-8,-11,-2,-13,-2
-4,-1,1,9,1,-14,-12,-1
-3,-2,-4,-10,1,38,3,-2
-4,-8,-21,-15,-9,11,0,2
24,-8,-6,18,42,-18,18,28
105,43,57,10,51,53,23,99
127,40,-53,-12,-76,-17,-20,-22
-128,-72,-7,-9,-88,-13,-2,-94
12,-47,49,10,-10,-10,-25,-80
-22,-32,-123,-21,87,-5,-24,-57
-61,10,34,7,-56,-3,8,-2
83,4,-18,1,73,3,1,26
47,-8,4,-7,2,5,-4,26
39,15,3,-3,5,0,9,32
24,16,12,6,-6,9,10,25
4,9,9,7,3,1,4,12
-4,6,-3,-15,-17,-7,0,7
-7,6,7,10,19,-14,5,2
8,2,-1,14,-10,6,0,-4
-28,0,2,9,-2,5,-8,7
1,-9,-11,-30,0,16,0,-12
6,4,-7,7,18,-2,2,10
-9,-1,8,-10,-26,9,-6,-10
-56,-15,-3,7,-59,-45,-8,-20
-32,-4,9,-14,43,16,-17,-32
6,3,-16,2,-89,12,-7,-8
43,-25,-37,-1,22,-8,1,0
15,11,13,-30,-4,-2,19,31
-40,5,7,12,-13,-6,-22,-27
12,8,16,4,37,-6,-3,-3
44,-27,-10,-16,-31,-22,-3,-8
-95,-18,-62,-18,10,21,0,-21
-22,-8,-3,3,41,26,-3,-6
15,1,2,-14,-41,-3,0,8
33,1,-8,-17,-6,-38,1,21
30,2,23,17,61,44,11,12
2,26,27,0,-54,-7,-1,3
39,16,-17,-52,-77,-18,-6,11
12,-13,-6,13,2,-9,-15,-3
-120,-16,32,11,34,-13,-5,-8
-14,-30,-119,-4,0,2,-6,-42
-87,-16,-4,-13,1,-12,-1,-35
103,17,13,13,42,25,6,31
21,-4,19,26,31,4,1,-4
-128,-5,-5,-9,31,16,-3,-22
20,20,-16,-15,-55,-35,-1,21
54,-5,13,-18,-97,-55,-6,26
-24,-15,-22,-19,-18,31,-1,-5
-52,-9,0,1,72,-22,-4,-22
18,-1,-1,11,18,-2,5,-4
58,8,-8,-19,54,1,-9,40
20,-3,0,20,-6,2,10,10
-83,-4,1,-4,7,-9,0,-55
7,2,24,5,-14,-13,-4,-19
26,7,-2,-6,23,24,0,19
18,13,-4,-33,19,8,-5,-11
-19,-2,33,19,-76,-4,-3,4
68,-1,-55,5,-62,-55,-5,8
-52,-18,-27,-10,13,20,-1,16
19,-18,-18,-35,-3,22,-11,-20
-128,-10,9,-3,22,7,2,-22
11,3,2,-13,4,4,-3,6
50,-1,-6,19,22,-4,-8,-10
-34,-7,21,22,-10,14,7,-2
31,2,10,-2,17,-5,2,18
-2,1,18,-5,-13,-17,-14,0
11,14,7,-16,-27,-1,6,4
62,-14,-46,-30,-20,-20,-17,2
-15,-5,1,20,87,19,-5,-10
-94,0,-1,-13,47,8,5,-16
-4,-6,-12,10,-128,1,3,-14
12,7,61,11,25,-3,0,-5
39,10,5,-7,4,6,-1,19
66,-2,-40,-11,3,-16,-2,25
-127,-24,-9,-8,13,21,-4,-18
-17,5,-6,3,98,-6,3,-5
43,-5,5,-5,-93,30,-1,-15
3,2,18,-32,-69,-20,-8,6
66,5,-6,5,-15,-48,-8,32
56,13,17,10,-3,25,1,-8
-128,-11,21,36,86,6,-6,-36
-22,-1,-52,-4,2,19,1,-7
28,-9,-17,-25,-10,-18,-9,0
35,3,-10,-11,-16,-14,1,26
101,18,50,9,23,-13,-2,28
-52,8,65,14,-50,30,-1,-30
-67,-7,-92,-24,-2,-37,-9,-20
-36,-15,-2,-18,-50,0,-12,-24
-52,-12,33,-11,43,10,1,-11
20,-29,-14,6,7,-3,-1,36
-23,11,14,27,-4,-6,7,-14
-66,5,0,3,-22,23,9,-23
9,-4,11,-2,6,5,0,19
-37,2,2,-10,-20,-17,-8,-12
13,4,3,2,14,19,-4,-9
7,10,28,-2,-38,-10,2,1
8,-7,-17,-2,-1,-24,1,11
-7,-20,-58,-15,-9,11,-7,2
-14,-9,-24,-5,-5,17,6,-3
2,-21,-6,2,21,-13,-2,2
41,17,20,1,8,-20,1,6
-14,5,-9,7,-62,19,5,2
-62,-2,48,0,-22,-3,-5,0
-12,11,20,9,48,40,7,-16
-43,-11,-20,-8,0,-38,-9,-17
16,-12,-26,-6,-38,8,-3,-3
36,3,-2,5,64,3,8,17
3,2,8,5,34,-5,0,8
-28,16,35,-4,-88,-16,-4,-1
14,-4,-21,-21,22,0,-8,-13
-28,-23,-22,4,-61,1,-7,-14
25,8,-9,2,38,-28,4,16
102,30,36,-14,16,30,-1,26
-128,-29,-10,21,25,-5,-12,-32
7,-7,-25,4,-2,-2,17,4
19,-2,-2,3,-11,19,5,-22
-31,6,34,-10,41,-31,-2,11
-13,-13,-17,5,-32,6,-14,-20
-92,-12,11,-21,35,41,-5,-42
28,5,6,-10,-119,-17,-1,-15
53,7,1,23,66,-33,-11,14
32,-2,-17,-1,-14,-9,1,18
10,10,0,0,22,32,5,19
75,1,17,-7,4,-1,-18,-27
-128,-31,0,-4,1,0,-4,-32
52,-6,-40,-18,-35,-13,-2,11
73,2,4,-3,48,2,0,5
-36,-2,-2,11,-19,0,2,0
-4,0,-8,-3,-21,-13,-5,-2
-2,12,20,17,8,7,0,9
6,8,-8,-16,-6,-49,7,6
-3,-19,-14,-29,34,23,5,2
-5,-4,-18,13,-40,20,-2,-5
9,-2,5,19,-39,0,-3,1
-7,10,16,9,68,18,7,-5
-7,-7,-20,-10,-21,-26,-6,-6
-72,-16,-4,-22,-50,7,0,-13
52,37,61,-18,-15,28,13,18
23,2,-7,18,20,-11,-10,2
-31,-15,-23,22,48,-6,-13,-2
14,-22,8,4,-3,-10,-14,-14
-128,-28,-14,-7,-8,0,16,1
116,14,19,-7,1,-1,0,9
0,-3,-32,-2,-1,-7,-4,-2
-17,7,14,1,4,11,-4,-12
26,9,13,-7,-19,-8,3,7
13,3,-5,9,44,-4,-4,2
32,3,28,-9,-57,-14,7,17
26,32,18,9,30,-3,-2,19
-1,1,-6,10,36,-4,-6,-4
-31,-18,11,-14,-79,-23,-10,-33
-9,-13,-22,-12,-6,-4,-6,6
14,6,-2,-12,12,11,2,9
45,12,23,-12,5,4,2,13
-7,-13,-16,7,14,17,2,-1
24,1,15,-1,-6,-13,-6,8
20,0,2,-19,33,-28,6,14
-87,1,11,35,-92,44,6,-4
8,-15,-8,-5,78,-15,-9,-28
24,-2,-6,-6,-48,6,-14,-11
19,2,4,-7,10,12,3,7
21,16,3,-6,0,14,14,22
56,-8,-15,-17,-21,11,-20,-9
-51,-7,1,-5,-5,-2,3,-5
19,12,22,3,29,-1,6,14
31,21,7,-5,-46,-25,-6,14
0,-11,-14,-11,-61,7,0,-29
-110,-22,6,11,14,-1,-7,-30
11,-6,-8,-15,9,-6,-10,-3
39,-6,-10,-10,9,-16,-3,0
-62,-10,2,4,-11,9,-1,0
21,8,-14,18,91,38,14,20
26,-3,7,19,-128,-42,-9,-1
-10,-3,-11,-12,16,-10,-14,-23
-4,6,-3,2,0,-8,12,-4
36,11,14,-4,15,15,-2,5
-37,1,-27,9,16,-36,-5,6
-100,-41,4,-24,-7,53,7,-13
-89,-26,-31,-12,5,-4,-8,-20
25,12,37,6,3,-14,6,8
37,11,17,6,-33,6,9,6
29,16,20,26,22,-5,-5,-1
-1,9,10,6,12,2,0,5
-8,-1,-6,-23,-29,-22,-1,0
-1,1,-9,5,-23,22,-2,-9
12,-2,0,-7,2,-9,-2,2
5,1,-13,4,10,-12,-2,4
25,2,4,8,5,-5,0,12
-1,0,-4,-4,2,-3,9,12
10,-8,-9,-7,89,-7,-5,-7
-5,9,17,-18,-128,-6,3,4
69,16,15,9,84,-20,-12,9
-44,-26,-62,-3,50,55,-3,-38
-86,-22,18,10,57,17,7,-27
18,-1,9,2,-16,3,0,-4
-65,-13,-49,-14,-40,-16,-9,-9
75,14,4,-20,0,-9,0,41
-46,4,15,21,-39,-29,-3,-15
-47,-1,0,-2,-44,-33,-7,-17
19,2,-1,-8,61,35,4,-5
10,1,1,-2,-46,-15,0,3
13,1,-2,-7,-4,-7,-6,5
9,-11,-16,-13,2,-13,-11,9
18,3,5,30,6,7,6,16
-6,11,15,5,0,-4,2,-8
-15,-10,-19,-13,-1,-7,-8,-11
4,-6,-21,-5,15,-8,-4,-4
-31,0,27,-3,-11,19,4,-1
-1,-2,-20,-14,-36,-1,0,-2
-2,-1,5,-8,0,-5,-7,-5
0,-3,-11,1,27,4,-1,-8
11,-1,1,-7,-19,2,5,18
75,20,36,0,27,5,3,39
81,-2,-32,4,-67,-35,-5,0
-128,-28,-48,1,-22,0,-6,-28
-14,-28,27,20,30,27,2,-40
-44,-15,1,-5,21,-5,-11,-22
39,3,9,-11,0,-4,-2,6
32,8,3,11,-9,-13,-2,13
29,6,-3,-5,-9,6,0,13
30,3,-2,1,4,-3,-3,-2
-19,0,14,-5,-5,8,5,6
12,1,5,5,-6,-8,-1,18
-5,-7,18,-17,-8,-30,0,-4
4,-5,-76,-22,42,15,-10,-3
30,13,12,24,-8,27,8,-4
-43,-3,-24,-7,-32,-10,-7,-10
24,0,13,-21,-74,11,4,-7
-38,-21,-5,5,-24,-46,-10,-41
-128,-34,30,-6,55,-25,-12,-27
12,7,-22,34,114,5,2,1
-24,1,16,-15,-10,-6,-5,-4
39,-12,-83,-1,-17,-3,-2,4
25,5,8,-7,-13,-2,3,12
16,8,5,-7,-13,-2,5,10
5,6,5,-5,-13,-10,-6,3
-8,0,3,-3,-13,-4,-2,-2
-4,-1,0,1,-1,7,0,-4
11,1,-5,-9,-1,8,5,13
2,7,-10,2,-2,-10,0,4
-13,-9,20,6,2,7,-2,-14
-32,4,-38,-6,1,-19,-9,-19
58,13,31,1,-16,36,6,11
-32,-4,-17,-2,-5,-17,1,-3
-43,-22,-11,-20,41,11,-9,-24
-56,-10,-14,6,-45,10,12,3
17,4,-16,-6,29,-19,-10,-16
20,-3,-16,-1,-52,-4,-17,0
-52,-4,3,-3,33,-1,1,-4
26,-1,2,0,-15,-9,1,7
20,7,1,-6,37,13,5,5
5,4,-1,6,-29,-5,0,1
7,-2,2,15,55,10,-1,1
-20,-1,1,-10,-10,-9,0,-1
15,3,0,3,27,11,8,6
20,-1,0,19,8,6,-3,3
-5,-5,-2,-7,-15,-5,-1,-1
-22,-3,-4,6,-7,-1,2,-3
-2,-1,-2,0,-10,-13,-1,-3
-6,-1,-8,-32,-18,-23,-8,-2
-2,1,-3,-15,13,20,3,9
26,-6,1,13,30,8,15,14
127,11,34,11,18,21,-4,21
-128,31,40,-6,-123,-44,1,-23
-64,-1,-80,4,61,12,-14,-18
74,-52,-33,8,-4,-9,-23,-47
40,-4,-74,-20,-36,-27,0,-8
-27,-3,18,-13,13,-5,-15,-25
-102,-23,30,4,19,7,-4,1
28,8,7,-16,-2,7,10,18
33,10,2,14,-33,0,-4,11
24,10,0,-7,-3,-14,3,12
13,5,1,-3,31,0,9,13
3,2,2,32,32,-2,-4,1
-1,-4,1,-6,-4,9,1,1
-5,3,0,-2,-9,7,2,-1
-6,-1,0,-10,2,2,0,-1
-8,1,3,4,-18,-12,-6,-2
-6,1,1,10,-5,-3,-2,-2
-8,-6,-6,-5,18,-13,0,-7
-3,0,2,2,-11,9,-5,-5
-5,-3,-6,-13,-23,-14,-1,-1
-6,-1,1,11,9,-7,-9,-6
-4,-5,-4,-5,-4,3,-9,-5
1,-2,1,-15,-9,-17,-12,-7
-6,-1,8,25,1,-29,-3,2
-4,-8,-6,2,29,39,9,1
-12,-5,-6,-35,-33,15,3,-7
-3,-9,-14,-9,44,-33,-14,-4
19,2,2,13,-45,26,3,17
30,-3,-4,-11,21,-22,0,7
-26,4,1,-3,-56,4,-7,-7
48,26,51,15,-85,17,-13,1
65,-15,-90,8,121,11,16,17
-86,-13,5,-15,-23,-27,-20,-28
-116,-9,33,-12,-8,-8,-9,-37
-83,-25,-16,-11,-3,3,0,-31
69,-5,-28,-15,-30,-16,-1,19
69,8,11,1,14,-5,6,20
27,-2,2,5,-7,6,2,15
21,7,2,-6,-16,-8,4,12
11,5,0,-18,27,-9,-5,1
0,1,1,2,-5,25,-2,-4
-6,-3,16,5,-27,17,2,6
-18,2,3,-7,12,-14,-2,5
5,10,11,11,9,5,9,2
13,-10,-40,-1,15,-28,-9,-4
-14,0,9,14,-16,19,-9,-8
-12,9,7,-2,23,9,-8,-9
8,-11,30,-9,-53,13,-1,5
27,19,7,-2,4,7,8,6
-29,-14,-112,-32,-9,-18,-2,-4
-46,-16,21,8,21,-16,-10,-8
31,-11,-13,-20,-46,-20,-2,9
-15,9,17,14,11,35,8,3
-38,1,-19,-4,-8,-16,-17,-12
61,-9,3,-14,16,15,-6,-5
-25,-4,28,5,40,1,9,-14
-110,-21,-16,-24,-52,-19,5,-10
18,0,-54,11,24,-20,-15,11
18,5,3,7,14,16,6,12
-2,2,11,15,-15,-10,1,0
0,-3,9,13,2,-2,-8,-21
7,2,2,-24,9,2,1,6
6,-3,-5,-7,1,12,6,5
0,-1,-3,-2,16,0,1,0
-3,-8,2,-6,-7,6,3,16
45,12,22,-1,-51,-54,-4,25
3,10,-18,4,6,11,3,-8
54,-3,-61,10,0,-69,-21,-22
-64,-11,37,-9,13,96,0,-26
-128,-32,-8,10,45,14,0,-40
-128,-4,12,0,-23,-42,-3,-30
62,16,23,3,9,-15,-6,22
58,9,1,7,53,58,15,31
44,0,-31,12,-27,-10,3,24
5,5,2,3,-37,-9,3,8
-5,14,40,-11,71,-14,-14,-24
-93,-27,-39,-18,-41,-4,-25,-36
37,-3,7,-14,-74,-20,-8,4
-39,-9,-1,19,71,6,2,-5
7,5,7,4,36,2,1,4
18,17,31,9,-2,-3,7,7
4,-5,3,-2,1,7,-5,9
6,-1,3,1,2,1,-8,1
3,-6,5,10,4,2,10,6
12,6,-2,-26,-2,-15,2,2
-2,1,-14,6,-2,2,-5,-16
-10,0,-1,-9,-13,5,-3,9
30,-4,-6,-7,-3,-11,-2,2
-8,1,-8,6,25,10,2,4
-34,-9,-3,-11,-1,5,1,-22
-32,1,21,37,-27,6,-4,-15
31,9,8,7,-33,-11,-3,-2
15,-1,-5,-2,34,25,-2,7
4,1,-1,0,-47,-24,0,-8
-5,-16,9,1,25,-21,-10,-20
-128,-19,2,7,74,44,-4,-10
19,-2,15,-6,-6,7,-4,7
11,-16,-98,-15,-14,-9,-1,6
16,4,0,-5,-14,-2,4,9
6,5,5,-7,3,-8,-8,-1
-11,0,26,5,-37,-18,-1,2
46,2,20,14,20,7,5,15
10,24,-39,6,-4,1,2,4
-70,-19,-46,-19,-18,-13,-3,-29
-29,-13,21,-3,-21,-1,-8,-14
3,-2,12,3,42,-6,-9,0
-1,-2,-6,9,32,11,6,2
10,3,12,-10,-57,-10,8,-3
27,4,-5,10,32,12,-6,8
-1,-5,-8,-6,23,-22,1,21
28,-4,-8,4,-23,26,-6,-11
58,-1,-10,-5,-18,-11,-1,-13
-128,-4,16,-1,-20,-10,10,-17
58,14,20,6,32,30,6,33
26,-10,-25,-4,-22,-12,-14,-6
-92,-17,-52,-10,6,7,-6,-18
-51,-9,8,1,0,-4,-9,-34
4,-3,-20,-3,-5,6,1,-3
58,16,15,6,59,-11,0,28
70,9,58,-5,-34,-1,-1,14
-80,-9,-9,3,1,11,2,-14
-89,-26,-24,-9,-4,2,5,-9
40,7,16,12,50,2,1,2
34,7,23,-2,-40,-6,-6,0
28,7,-10,-24,6,-2,-2,6
11,-8,-10,8,-2,-13,2,-9
-39,-16,-28,-11,-12,9,5,-6
18,29,5,16,4,-20,-13,12
27,7,25,-5,36,2,-6,5
70,-11,-14,-13,34,-14,-10,-11
-128,-13,-2,-16,-34,4,2,-25
32,-7,4,13,-51,0,-8,-7
18,-1,-1,-12,-9,32,9,4
10,-4,-9,-11,19,-26,2,6
25,1,9,20,16,29,10,6
-15,-4,-16,16,18,-3,-4,4
-38,-8,4,0,-9,-34,-13,-1
23,6,4,-19,29,29,3,-6
1,5,-5,-6,-81,-10,-2,-11
-108,-14,1,26,75,7,-4,-15
24,-8,0,10,29,2,-4,-21
15,-5,-11,-4,9,-3,-4,4
18,8,11,4,-26,5,5,10
20,12,7,-3,4,1,1,5
12,-14,24,-9,-29,-11,-8,5
9,-21,-84,-14,3,-6,-11,3
-12,2,-3,-3,-3,-4,12,2
54,12,26,-1,-2,0,-6,3
-70,-10,-7,1,7,0,-9,-21
-48,1,-15,-3,30,-2,0,-8
-7,-13,28,-10,-61,-23,0,-5
-52,0,7,3,-11,4,-3,-12
19,2,4,12,37,2,-2,7
21,-3,0,4,18,6,-3,-5
-24,-2,-1,-6,-25,1,10,4
31,0,1,2,7,-26,-9,18
-14,1,9,-4,37,24,-4,-13
-106,-14,-27,-21,-42,16,4,-20
23,2,-20,19,14,-4,9,-6
9,6,26,12,31,-5,-3,8
25,11,7,-7,9,-10,-1,5
1,-10,52,-11,-27,16,-5,0
20,-1,-21,-7,-8,-5,-3,3
-24,9,4,-11,-7,0,1,0
12,-9,9,-2,-5,-22,-10,2
-26,-4,-9,6,-29,16,-3,3
7,-2,-17,9,63,8,6,-22
12,9,4,12,6,3,5,-5
28,11,30,-4,1,-24,-16,-5
-23,-21,-4,-16,9,19,-1,-4
-47,-9,-47,-5,-53,31,1,0
2,8,22,6,5,-17,-4,-3
14,-20,-15,6,1,12,1,2
30,1,-37,-12,-27,1,-1,12
-10,-6,3,11,31,-9,-16,-6
-6,5,36,4,9,1,-3,-7
11,5,31,-2,-11,7,-5,3
-19,-5,-44,-11,12,5,8,0
63,1,-11,-8,-14,6,5,20
-20,6,2,0,-38,-30,-3,-5
6,3,16,0,5,13,1,-8
-128,-30,-3,11,69,4,-5,-35
12,10,-3,-18,-63,-7,0,0
19,-5,-8,-10,-31,-11,0,16
54,-10,-12,20,32,-9,-3,1
-28,-2,-3,-5,-12,-17,-2,10
26,3,2,-8,3,29,-5,1
7,-1,12,-19,-13,-21,-6,-8
8,10,0,11,24,6,0,-5
6,11,5,17,29,5,-6,2
13,-1,-1,-12,-78,-15,5,4
-11,-13,5,9,-11,-21,-11,1
-36,-13,-35,9,7,44,0,-6
7,12,36,0,5,-15,0,1
21,2,0,-3,31,25,4,6
-49,-2,-21,-21,-42,-10,-7,-10
11,-30,-31,-19,-8,-1,0,-13
9,2,19,2,-2,0,-1,4
17,-1,11,25,-4,-11,-6,-1
-21,-4,1,-5,1,3,5,-15
96,22,6,-11,-8,15,-4,33
76,4,-6,3,-27,-30,-3,-8
-128,-19,-7,-4,23,21,24,-39
-27,-7,11,25,37,-7,2,-6
46,2,16,-1,-30,-11,-13,7
16,5,35,-8,-22,4,-2,-7
14,-15,-26,0,-19,-11,-9,2
12,-2,-24,-6,0,-2,0,8
5,2,-6,3,6,-2,-1,2
19,3,2,-2,-8,0,1,6
11,3,6,-9,-27,-12,5,5
2,4,-3,2,4,4,1,9
4,-1,20,26,33,22,-1,12
-40,22,29,-7,-53,-10,0,-19
59,-4,-42,-13,11,-19,-9,-4
-75,-26,-37,-12,-6,15,6,-29
-57,-14,8,-7,-2,3,-11,-17
25,-4,13,-5,-8,-11,-1,-4
58,9,5,1,-2,-10,3,19
8,8,9,9,-1,-10,-1,11
19,3,-5,-8,18,0,-8,5
63,-7,-35,-4,-8,47,10,37
-2,-3,-6,-19,-9,-30,-16,-2
-124,-16,-2,25,-25,-2,0,-23
26,-1,19,27,27,-22,-15,-24
12,10,-12,-2,-33,-10,-7,7
-11,-5,13,-4,8,-1,4,1
-27,-6,-3,-7,-16,-20,1,4
8,-10,-12,-12,11,6,0,4
51,13,-7,-8,-3,-18,-4,32
122,-1,12,-9,-24,-10,-3,-19
-128,-16,35,23,58,9,2,-33
67,3,-27,-30,-42,-7,4,2
-9,-12,-81,15,-29,-34,-10,-19
15,-17,-27,-18,-14,8,-9,1
30,4,17,6,9,-11,-4,1
-11,15,12,11,14,25,8,10
-10,7,-12,4,6,0,4,1
2,-7,51,-7,31,-8,-2,-2
1,-3,-3,-14,-58,-22,1,2
-1,2,4,-2,-14,-7,-13,7
5,5,3,5,24,19,3,4
-2,-7,-11,2,-24,-1,-4,-10
-27,-2,-2,10,15,2,1,-9
-6,-1,-1,-7,-8,-4,1,-6
13,0,-5,-11,-6,-11,8,7
50,0,-8,0,13,-12,-11,6
-34,-5,2,0,-6,10,-15,-4
24,15,-12,7,8,-21,3,-6
-68,13,46,9,15,42,2,9
-1,-30,6,-18,-27,-10,14,-11
-76,-18,-89,0,5,-17,-14,-31
38,-4,-28,-12,-33,-5,-7,-2
14,1,-8,-10,7,-11,-7,-1
18,6,21,8,27,-13,-1,6
9,-1,5,11,-8,6,4,5
7,1,0,4,23,4,2,5
0,3,-4,-9,30,14,6,5
7,1,-4,-5,-85,-9,-4,8
7,-4,-5,-21,24,17,-8,1
-19,-6,1,-7,-27,-56,-17,-7
-16,-1,-6,-16,-2,50,15,-3
19,9,27,14,1,-27,-2,-14
-71,-7,-43,-1,7,13,-4,-15
21,-7,49,1,-15,-5,-8,-19
23,6,81,4,18,-5,1,9
-8,-11,-31,-8,4,2,-8,9
25,-21,-85,-31,0,-8,-10,-6
-9,1,23,7,-6,-9,-6,-2
-27,-3,19,-10,-23,-26,-5,-11
-4,4,9,-10,10,30,-6,-13
15,-1,17,29,24,3,5,4
26,0,3,-4,-10,-19,-10,7
26,3,-6,6,11,9,11,17
16,6,-4,10,8,5,1,1
1,2,9,-5,-9,-5,-7,-13
-53,-15,-11,-10,-8,-5,-15,-6
5,-2,-11,-7,-8,-12,11,3
5,2,5,2,-6,-6,3,1
5,2,-1,-2,2,1,-3,3
2,-8,-5,2,8,0,-3,0
-7,-1,0,-1,0,-15,4,-10
2,1,13,8,-29,11,-9,-1
10,3,-26,-2,36,2,-1,9
-15,-10,-8,8,34,-1,-2,-17
2,-5,-12,-26,-99,-19,-10,-17
23,14,5,-7,-21,6,3,9
48,23,49,12,9,-10,-8,-2
-20,-9,48,-13,28,0,-10,5
3,-19,-85,8,11,21,4,4
-120,-12,-9,1,-5,-16,9,-22
15,4,23,0,11,11,5,-10
29,7,-22,-4,-5,1,-6,6
42,-1,17,-8,-3,16,1,5
-60,-3,3,-5,63,-5,-3,-1
11,5,9,-15,-128,-54,-23,0
43,3,-11,-6,38,-17,3,20
7,0,-8,20,-33,2,8,2
-35,9,11,11,88,12,3,-5
-36,-2,31,7,-25,-31,-10,-23
1,-18,-54,-11,16,23,0,-15
8,3,-10,-9,-5,5,-3,-4
12,3,-14,-21,-34,-26,-2,19
-2,0,-19,-15,18,-1,-4,0
19,0,24,-5,27,-8,-7,5
-4,-8,-17,0,-13,3,-1,-1
28,13,3,-3,5,3,6,21
-5,0,-1,-4,-15,7,4,5
-23,-14,-1,19,-26,-10,3,-10
-11,-10,-19,-2,34,13,-4,-26
11,11,-4,8,27,-6,0,-3
-30,-2,36,-7,-16,17,-4,-8
8,-7,-58,-13,-13,-6,-4,0
37,9,2,6,-6,-20,-2,16
50,7,7,1,-7,-17,-5,9
-10,-9,34,-1,-12,16,2,-8
-15,-13,-32,-18,46,-14,-3,-10
32,7,-21,10,-46,-15,1,19
-10,-11,0,1,13,0,-11,2
-34,-7,2,-19,-27,-1,-4,-23
-22,-7,1,0,12,11,-3,-30
11,5,2,9,62,-12,-9,-1
9,5,2,1,-20,-3,13,9
9,0,-6,-5,-27,-18,-10,6
9,0,-13,-5,9,-4,-7,6
12,-9,-17,5,6,25,6,14
36,6,37,8,14,3,15,6
-32,15,9,6,7,11,-7,-10
-27,12,41,-14,-13,-8,-3,-14
45,-21,-80,-13,-14,-19,-7,-2
-22,-18,-32,-12,6,2,1,-7
-13,-6,9,11,1,-12,-3,1
12,6,15,9,3,-12,-2,9
10,4,8,-1,10,-4,-2,9
7,1,1,-9,-24,11,-2,-9
16,-8,-14,-12,9,-6,-4,1
30,2,1,31,62,4,1,5
-68,-3,4,3,-25,12,3,-2
6,4,-9,-27,-48,-26,4,-5
-29,2,12,8,32,44,0,-10
-64,-5,-1,0,-1,0,2,-21
21,-9,-40,-15,-15,-4,-15,-1
24,-9,-14,-9,0,15,1,10
33,5,13,-2,1,-16,7,3
-46,-5,21,-5,-7,-3,-6,0
-4,-2,1,0,3,-1,1,-1
25,8,17,7,-5,-24,-2,14
43,26,11,4,14,11,8,34
3,17,31,11,39,5,-3,-21
-36,-31,-69,-26,-44,3,-7,-46
2,-39,-62,-15,-60,-21,-22,-19
-55,4,12,6,58,-8,4,3
11,1,-8,-4,77,-13,-3,5
-2,-6,-10,-16,-128,-6,2,11
7,-1,22,9,26,12,-1,4
3,0,2,17,18,-7,-6,-7
9,2,-38,-11,26,-2,0,1
23,5,-20,-9,-18,6,0,13
29,4,33,1,-1,-16,-1,14
30,4,-7,5,20,-8,0,-4
-77,-10,-15,-6,6,39,6,-19
-42,-25,5,-3,-12,-21,-18,-39
-20,5,21,7,8,-12,-6,-11
18,5,-1,-12,-5,-4,4,5
18,-3,-14,-8,-16,3,3,8
27,-1,-8,10,-1,-16,-6,15
14,5,5,-46,-42,20,3,16
24,13,3,30,54,23,9,10
-5,10,-9,20,49,-9,-8,-6
-10,-28,-6,-24,-44,-31,-19,-18
-14,-5,7,8,4,41,3,-15
7,2,-1,1,-22,-15,2,-8
32,-5,-2,-3,-2,-13,3,3
5,10,-3,6,15,-16,3,17
7,14,56,2,-7,40,13,14
-8,-13,-4,-2,-9,-17,-12,-9
46,-23,-83,-15,-1,-7,-14,-12
-52,11,11,-2,7,-4,4,-8
-13,11,-8,7,22,-1,-1,0
55,5,28,-18,-29,-4,-5,5
9,3,-7,-6,9,-1,-2,7
-32,-12,-1,5,-4,-2,-6,-27
-34,-4,-1,2,3,-16,11,-21
13,-8,3,-6,9,17,-6,5
16,8,47,27,-6,-11,-1,10
6,-10,-73,-5,8,0,-1,8
0,-5,-25,-10,9,16,8,-4
-3,6,-13,-10,27,-1,6,5
11,3,24,-20,-70,-23,-5,4
10,2,12,20,-9,-17,-14,-9
-14,-2,11,30,-7,-9,7,-1
18,-7,-8,-9,5,1,6,-3
-1,3,-1,-7,3,1,-7,-12
-12,-1,-13,-9,24,-16,-2,-5
-29,11,37,-9,-40,21,-2,5
26,-4,-11,0,5,-23,0,10
-11,-7,-34,1,28,24,7,-9
96,8,14,2,-24,-7,-6,28
50,20,-12,1,-2,-6,5,7
-128,-7,33,-7,8,-4,-9,-27
46,-12,5,8,1,-3,-6,-31
127,-4,7,10,13,-2,-4,12
-86,-13,-14,-8,-17,-6,6,-11
-47,-9,-29,5,2,2,-1,-4
25,6,15,-9,-13,-6,4,9
3,-12,-14,-9,-4,-15,-15,6
11,2,5,0,60,14,4,5
16,10,15,15,-53,-6,6,24
2,15,24,1,4,-10,-6,-13
11,-7,-27,-1,-15,-9,3,10
3,4,-25,-16,8,36,10,3
0,8,6,-1,-19,8,-14,-5
2,-16,-1,-12,-9,-24,-9,-21
-128,-13,11,0,4,15,-6,-33
25,-5,29,-6,-2,-8,-3,-10
37,1,-17,-1,-12,-1,9,16
22,3,-2,20,54,-19,1,12
18,6,2,-17,5,14,8,15
16,-11,-31,4,-9,38,-5,2
46,3,14,18,22,-17,-4,1
-70,19,36,-3,-2,-11,1,-6
-8,-12,25,-24,-51,-8,-4,-5
-4,-9,-7,-11,6,-6,-4,1
-4,-17,-74,-13,-4,-2,-4,-1
1,-1,-2,-9,1,-5,3,-4
1,-1,-1,14,31,5,6,-5
3,6,5,-10,-49,-3,10,12
5,-7,-5,-15,-1,3,-16,0
-2,-7,6,24,5,-12,-6,-2
-2,4,14,17,-5,-16,4,-1
-9,6,4,-18,-4,-13,-3,-6
1,1,-63,-14,-10,1,3,-13
-24,-24,-5,-6,6,-14,-7,-5
23,7,14,-2,5,1,0,9
43,15,7,7,52,1,5,9
16,3,-4,5,-51,9,0,4
-48,-10,6,-3,-4,-17,0,-31
-61,-26,-14,-15,-18,-18,-12,-14
43,15,33,1,-19,3,-9,15
11,4,-6,-4,81,24,14,-1
-25,-2,-17,8,-37,-4,7,-3
40,8,11,9,22,-2,-9,-11
-25,-1,62,4,6,-21,0,6
-33,-34,-79,0,10,9,-6,-3
-20,10,-8,-15,-6,-8,-2,1
15,3,6,-8,-30,-15,-7,0
5,-4,8,-8,-1,-14,6,-5
5,8,18,7,16,41,-3,2
15,3,49,2,-7,-6,-5,6
25,-3,-17,-9,2,-38,-10,9
12,-5,-15,-10,-16,16,-7,-7
-117,-11,6,-25,51,7,15,4
-58,15,22,50,-41,-10,1,-17
-79,-28,-27,11,19,5,-10,-43
23,2,34,-8,-1,0,-7,8
62,10,-4,-7,1,2,0,13
35,-9,-2,2,3,-32,-6,-17
-91,-16,-20,-24,-11,0,-1,-8
17,-6,-16,-8,-10,7,-11,1
10,-3,9,1,-4,0,7,8
17,14,11,10,2,-1,14,9
8,7,-8,-6,-7,3,-6,1
-5,0,1,-1,10,-11,-2,2
8,-15,9,-15,20,24,2,-13
-30,4,-5,2,-20,-7,-6,-4
0,1,25,1,14,-5,1,-7
14,-3,-21,1,13,4,0,-5
-66,-13,-13,3,-28,-4,-2,-5
6,-5,-3,-4,-6,2,-3,-1
5,0,-4,-5,-3,-1,0,1
4,2,3,-1,-1,-9,8,2
13,-4,-5,1,-1,2,-15,0
-21,-9,-7,0,2,-3,-5,1
14,2,0,-5,-6,-33,5,6
32,10,21,-18,4,31,-7,16
47,17,-10,-9,-30,10,10,25
-95,-2,27,41,67,9,7,-14
-35,-27,-78,-19,-35,27,-9,-58
-68,-12,-12,-18,-33,-19,-13,-29
13,3,24,-15,-8,-20,-7,5
22,-2,18,21,45,20,0,7
19,5,3,-7,5,0,2,15
11,8,0,-4,-24,-6,3,9
11,2,-4,-18,-2,-11,-1,8
19,-4,-4,28,37,8,0,-3
18,13,5,17,-19,-18,-5,18
98,15,16,-20,-35,7,4,27
-128,-34,-18,-11,19,30,-7,-45
-59,-44,-31,9,-35,-34,-16,-39
47,18,15,-6,-8,2,0,-14
-14,13,-13,-16,-1,-14,-1,10
35,-24,-62,-4,41,2,-2,-2
36,10,32,7,-6,-6,-1,10
3,20,-1,-8,15,8,1,9
-23,-16,-16,-9,-48,-14,-8,2
23,2,26,10,13,1,-4,1
-66,-6,-6,-18,-3,-2,4,-3
-4,2,-6,-14,-10,-7,1,3
1,-1,3,9,10,7,1,3
0,6,3,2,0,0,-6,6
-11,-1,-4,-12,9,1,1,-1
1,-3,-5,-5,-26,-25,2,-6
15,-5,-12,-12,22,15,-2,6
-1,4,7,-2,-47,14,1,-2
14,-6,-3,1,13,-10,-4,-18
-93,-10,-4,-13,-18,-4,-6,-24
-8,4,1,-9,-16,-28,-5,0
11,0,-2,1,14,6,7,0
14,-12,-4,19,23,35,-15,0
57,3,-7,-2,-6,-2,5,17
42,10,9,-2,-11,4,17,26
-83,1,14,0,27,-21,0,-1
-19,-23,-6,-4,-21,8,-10,-22
-23,-8,-10,0,-20,-9,-11,-33
57,0,-16,-16,17,-8,6,-1
-21,8,7,9,-9,7,2,4
44,2,7,5,-40,-28,-26,3
-6,-2,1,5,22,3,1,5
13,2,-2,17,-7,-22,-1,6
-1,5,24,1,3,32,8,9
5,-6,-2,10,50,-4,4,4
-9,-1,-31,-21,-67,6,-4,-6
-6,-4,-13,-12,-21,-14,-13,-1
29,-3,6,1,-13,-19,-8,-1
-24,-5,-11,1,18,26,10,-1
-10,1,39,5,16,-7,5,-7
-13,-8,-33,1,-6,-8,-3,-1
2,-1,-8,-14,-2,11,-2,-4
4,-2,9,-7,-12,-8,2,-4
7,5,42,14,38,-2,-6,10
-5,-7,-4,0,-5,-19,-2,-3
29,4,-27,-21,-5,14,3,12
59,7,-23,5,-17,3,11,20
-5,14,21,12,13,9,-4,0
-65,3,14,-6,23,6,-7,-25
-70,-40,-2,-15,-66,-17,-6,-34
15,-12,-9,-6,39,-13,2,-9
39,8,2,10,16,18,-6,14
20,7,10,4,29,7,-3,9
14,-2,10,-5,-62,-24,-4,-2
-6,-5,-35,10,28,2,0,-2
7,17,6,-10,-16,-7,3,3
-6,-1,10,35,-12,-6,3,7
-22,-7,5,-10,21,1,-2,-5
-4,1,19,-1,-12,37,-2,7
30,-1,11,12,23,-5,-4,3
-4,10,11,7,64,18,5,-6
-42,-5,-93,-17,-40,-14,-4,9
127,13,16,-27,-77,-17,-5,8
-128,-13,26,-8,-17,-14,-9,-40
-68,-34,2,13,57,19,-5,-23
-17,-11,-22,-2,-31,-16,5,6
51,15,2,14,9,59,13,23
31,5,8,-11,7,-9,-4,12
3,-13,-1,6,-29,1,-7,-26
-69,-9,-23,-16,-3,-13,-11,-23
0,11,8,-4,18,-13,-2,-4
18,-18,-48,-7,1,7,-2,4
38,4,20,3,-73,-44,-9,21
0,-1,-22,-13,58,46,13,-7
-60,9,7,-2,-39,1,-2,-12
8,9,4,-9,-6,-9,-9,-2
0,10,22,18,7,-1,2,10
33,-4,11,-20,0,-8,2,5
-29,-5,26,12,26,12,-4,-6
-11,-12,-11,-21,-23,0,-3,-6
-1,-20,-45,35,60,12,10,11
26,0,-8,-8,-4,31,-3,1
-6,16,44,-6,-6,-4,-12,-6
-3,8,12,5,24,2,0,-10
29,4,2,7,-4,-11,3,-7
26,-5,-3,-15,-31,8,2,3
-73,-21,-42,-12,-7,-9,-2,-8
27,-5,-4,-30,-12,-21,1,9
38,6,21,20,4,4,1,8
-59,2,21,10,10,-18,1,7
3,10,-26,26,20,41,2,0
-65,-5,9,-20,-36,-8,-10,-37
34,-16,9,-30,55,11,-7,-5
37,-6,-21,-6,-59,-11,0,-20
-128,-17,3,-8,-60,-12,-3,-18
21,12,14,36,77,16,6,13
18,-4,26,-6,0,-9,-2,9
21,5,5,-2,-18,-8,3,14
42,6,3,6,34,10,1,6
-42,-16,-46,-7,-30,-16,-7,-8
-96,-3,1,-4,14,18,4,-3
1,-6,47,-14,-27,0,-17,-13
18,-12,-33,-12,4,-16,-6,-3
28,32,0,0,21,-17,0,11
52,13,-20,-5,-27,-10,-1,3
-75,-28,7,10,-32,-52,-1,-26
-35,-11,33,-5,4,67,-2,1
53,-3,-11,-24,35,23,-4,16
-4,3,-8,5,-36,-16,3,-1
-38,6,-4,-9,103,8,-1,-8
6,-6,16,7,-72,-7,-2,-17
24,1,-6,0,22,-37,-10,6
31,-4,11,-5,-14,21,-6,4
3,9,51,32,79,-1,2,-8
-32,-19,-112,-9,-20,14,5,-9
4,0,-2,-6,1,-9,-2,-3
28,9,0,-11,-13,-9,-1,11
51,-1,7,-1,-6,-2,-1,8
-24,-7,-7,-2,30,1,0,13
20,-3,-11,0,-16,-7,-1,-13
-128,-36,-5,4,-14,0,-4,-42
20,3,17,-1,8,-4,-2,-6
40,27,6,-8,17,-11,17,25
73,5,-2,33,-51,-41,-18,16
-46,-19,-20,-27,-7,97,15,-14
-67,-12,-8,-11,26,0,-20,-44
11,-10,-19,2,14,29,5,-4
17,-4,8,3,4,-5,-1,5
26,3,-8,1,-9,-11,10,26
27,11,3,8,18,-13,8,10
-9,7,11,1,18,-10,3,7
-16,10,10,7,-42,-1,-8,-5
-11,2,4,5,52,5,-6,-3
41,-14,27,-5,-39,16,-2,5
35,7,22,-15,-13,-12,-1,15
6,-2,-88,-1,-8,-1,-2,-11
-73,-5,7,-13,9,22,3,-16
33,-11,-14,2,-13,-11,-4,-12
-20,-2,17,-4,13,7,9,8
9,7,15,8,-3,22,3,4
-28,2,-12,22,26,-3,0,-3
16,-4,-4,-7,-1,-18,-15,-8
19,8,28,2,4,-1,-4,5
31,9,23,-7,14,33,6,9
-16,-12,-56,38,32,-20,-3,-16
-79,-9,18,-36,-39,9,-8,0
45,-3,46,-4,-20,-11,-7,-16
-25,-4,-82,15,9,7,-3,-4
27,8,7,-5,2,-25,-10,-13
4,-21,-20,-9,4,28,1,-2
26,-5,-11,-6,1,-13,3,15
-30,3,8,-11,4,-9,2,-1
-24,2,11,7,69,10,7,-9
-26,-5,-11,-2,-106,8,-10,4
22,-9,1,21,89,-10,7,23
-21,5,19,0,-6,0,-2,-4
11,0,-15,-6,-30,-9,1,5
11,4,-16,-11,15,9,1,-8
-63,-13,-5,1,-2,-28,-3,-8
14,-5,-4,-2,20,8,1,6
17,5,-10,-5,-26,-4,3,6
7,-9,-19,-11,20,-17,-14,-13
19,4,19,5,-3,14,1,1
30,-12,-9,5,-1,-2,1,14
33,0,-12,-8,-16,-7,3,10
-73,22,10,12,38,18,8,-21
-25,5,53,-11,-64,-7,-5,-16
23,-9,-35,9,23,4,0,4
37,7,-14,5,-34,-34,-7,7
19,-9,2,-26,-47,-19,-14,-2
-23,-8,10,-19,17,63,5,-3
-25,3,-18,12,-19,-21,-4,-3
31,4,-4,-7,-1,-2,4,2
-30,-5,23,0,-13,1,5,-13
-119,-9,4,10,23,-9,-12,-16
19,1,-17,4,10,-2,0,10
11,-9,-20,-12,-12,-22,-1,-2
13,-7,-6,-3,3,12,-2,8
13,5,12,-4,-9,-10,1,2
10,-4,-17,-8,3,-3,-1,5
20,8,-2,1,-25,-7,-5,-1
-35,3,25,-20,13,17,-4,-14
66,-9,-7,6,33,-4,4,12
-43,13,1,12,25,17,-9,2
5,5,22,2,-86,-39,3,-7
-76,-3,33,9,8,11,1,-16
18,-11,-87,-10,21,10,-8,3
42,-8,13,28,-29,-18,1,2
12,-9,-20,-19,-10,22,1,-6
51,-9,-12,-7,0,-3,-3,-14
-128,-31,6,-9,5,23,-5,-20
-22,8,-6,6,15,-18,-3,-4
24,-12,18,10,-32,-22,-10,8
25,10,8,-36,-22,-19,2,10
22,27,-8,40,56,30,13,6
8,-7,0,-13,41,-6,-4,-1
2,-8,28,-22,-56,-7,-8,2
54,-11,-78,-10,32,20,-2,17
-47,7,27,18,-9,-7,4,-11
-57,-9,-9,0,-14,16,16,-11
12,-13,-7,-7,-4,-9,-23,-12
11,2,15,-5,1,-18,-6,-9
-46,-10,-9,-10,-6,-14,-3,-6
39,3,7,7,40,12,9,22
9,1,-21,-12,-82,-30,0,1
-28,10,-10,-27,49,13,0,8
37,2,31,26,50,2,-5,2
9,-10,-28,-5,-23,14,-5,-9
63,-15,-22,-9,-14,-10,-4,-9
-119,-27,-8,9,-13,-18,-3,-8
-36,10,25,15,-16,27,-3,-7
3,11,7,-4,6,-7,-6,-2
34,4,0,-10,-21,-25,-7,2
-59,-9,-10,-1,8,13,13,-4
36,7,21,17,18,-30,-5,13
89,10,64,10,33,31,-2,25
-24,-16,-128,-15,11,15,5,-12
-42,-13,18,-10,-31,33,5,-12
62,2,23,4,10,-1,-2,-1
77,10,6,12,-23,-24,-1,3
-105,-2,2,-10,2,-12,-4,-16
-3,-8,-7,-10,16,-9,-7,-11
37,1,-4,-5,-16,-13,-3,4
30,6,7,14,11,-11,-3,6
35,4,22,-4,-7,-3,-2,8
-35,-20,-38,-7,-31,4,-3,-4
6,7,-3,-6,3,38,11,8
41,21,52,-7,27,-3,-3,16
-15,-13,17,2,-4,4,8,-13
-75,-7,-30,8,-4,-40,-13,-23
28,-13,55,7,4,22,-10,-12
42,-3,-80,20,12,-1,5,14
-7,3,-32,-10,-14,2,2,-3
-33,2,43,3,19,-2,-1,-17
-15,-9,13,-21,-41,-16,-8,-8
49,1,-19,-28,35,17,3,22
31,5,0,17,-65,-20,-3,-2
-109,-5,-1,35,62,5,-4,-15
9,-13,3,12,-29,5,-6,-18
26,12,18,8,7,-19,0,10
46,9,9,-8,-10,-11,1,8
-9,9,-20,22,-1,-27,-9,0
0,-7,-8,-16,-2,49,2,-1
31,-7,15,-7,0,-12,-6,6
0,16,14,-2,31,3,-14,2
2,-18,-59,-9,-63,-19,0,-20
-58,-17,20,-7,-16,13,18,-7
14,6,-40,-4,17,-19,-2,8
17,12,3,7,8,-4,-2,5
45,2,-8,8,9,22,3,3
-28,-5,13,-2,34,10,-6,-9
27,20,21,3,12,-14,-5,21
42,6,29,3,-16,-28,-7,7
-61,-18,-11,-17,-13,4,4,-22
-84,-16,-22,-9,-79,-13,-9,-20
31,-1,-11,22,45,10,-3,-8
25,0,6,-7,13,12,-1,-1
-54,-13,-10,-17,-20,-12,5,3
29,5,-1,-2,-21,-14,-9,20
0,7,7,-7,10,1,-5,-8
13,8,-10,-1,13,23,3,-3
-12,-13,17,-8,-9,-17,-2,-12
19,-5,-7,-4,6,-15,1,7
-14,9,27,8,-52,-5,2,-1
-6,1,-11,9,60,-6,-3,15
37,17,16,5,6,6,2,11
22,0,5,-16,-72,27,-4,-19
-35,-22,-64,21,-6,-10,-9,-30
-89,-6,2,-20,-1,-24,-10,-23
-118,-11,28,30,2,15,5,-1
43,7,2,0,-1,18,3,22
20,5,-1,-7,-4,-16,-10,-5
11,3,11,-3,17,5,-1,0
14,2,0,0,-21,-13,4,11
8,-4,-26,-13,-17,1,2,3
38,14,-19,-17,-26,10,12,15
-6,2,53,-8,51,5,-9,0
-9,-16,-58,16,-31,10,2,1
-34,-3,-1,-1,15,-17,-2,-10
-17,5,20,3,-10,-8,-7,-8
26,1,43,-2,-10,-11,-7,2
-8,-16,-68,-18,-6,15,3,-2
-48,-2,-14,0,-19,-9,1,-15
47,3,2,0,-8,-2,-7,1
-16,-9,-22,0,-17,-8,-7,7
45,-4,25,2,126,-11,-4,10
-35,20,33,8,-90,8,-6,-5
55,33,66,-13,-34,19,14,8
-27,-25,5,-2,-15,-7,-2,-15
-77,-24,-46,8,21,-6,-6,-26
-64,-22,-22,-10,4,-5,-6,-18
34,2,-3,7,14,7,5,17
28,7,4,-9,-5,-15,3,10
10,0,1,-7,29,9,2,6
-24,13,7,-16,-61,5,1,2
41,5,8,25,10,-2,-7,-10
20,-2,-5,-10,14,-12,-11,-3
-17,-8,-6,-8,19,-14,-4,-16
4,-2,14,16,-8,3,0,17
16,7,38,2,-29,23,4,6
-36,-9,-125,-20,12,-15,4,-15
3,7,45,2,18,14,0,-10
42,8,38,-10,63,11,-2,19
36,0,-9,-1,-99,-16,-7,3
-18,-2,1,-4,-7,5,-13,-5
-63,-11,-4,-14,-7,1,4,-11
-7,-7,-2,4,15,0,3,-13
7,0,8,17,33,-19,-6,-5
30,3,31,2,-20,23,7,20
54,15,-34,-6,5,1,11,16
20,12,-19,17,15,-28,-14,5
-64,-24,-11,-19,40,16,-13,-34
-1,-4,42,3,-33,-15,4,10
45,-4,-12,-12,11,-7,-7,3
-7,-2,-12,3,-11,11,4,-4
-13,1,7,-15,17,-7,-3,6
42,3,3,1,-6,5,8,17
-13,7,21,-6,-1,-31,-2,-11
-84,-12,-1,2,4,43,-10,-34
-8,-2,-19,-19,-2,9,3,-2
60,29,21,13,30,-12,0,21
110,-20,-8,-9,-17,-9,-4,13
-128,-37,9,2,-36,25,1,-41
8,4,-15,14,2,-14,-7,5
52,15,23,-21,10,-1,-4,10
31,1,-38,-9,-7,11,8,-2
-77,-3,15,4,14,23,1,-5
18,-1,-16,-2,7,-24,1,5
8,14,-1,13,-9,32,7,7
18,-3,40,6,30,-25,-1,1
23,-1,-4,0,-26,-32,-12,17
-14,2,-22,4,14,40,1,-7
-49,-9,-1,-18,-13,-12,-9,-18
-5,-7,-5,-16,-1,-18,8,-10
-26,-4,-10,4,-1,19,-5,-7
-5,6,48,9,-2,1,-1,-1
23,14,47,-10,-19,-10,0,9
12,-23,-128,-9,18,-2,-10,-6
3,-7,-4,2,8,-9,-1,-2
-36,-11,-8,-16,-8,-3,5,3
-22,1,17,3,-42,0,2,-5
8,3,34,-10,108,-14,-1,8
91,-6,-19,22,-98,50,12,-1
-128,-1,-16,-8,29,-21,-15,-23
72,5,0,-17,-24,-26,-6,3
-105,-16,-10,-11,6,-8,-3,-2
-2,-3,0,0,54,3,-1,-2
-7,-2,-4,1,-32,-4,-2,-10
35,4,-1,-4,-18,-8,-5,-1
-11,-5,10,-6,3,-3,-2,-1
-34,-17,-16,-4,3,-3,-1,-8
29,-7,-4,5,49,9,3,10
12,1,3,5,-44,-6,1,4
12,3,11,-4,-10,-19,-13,1
1,8,17,-3,15,-1,20,4
35,-1,-39,-12,-11,30,-2,20
-48,3,21,9,28,2,2,-18
-65,-9,15,-16,-49,-20,-15,-33
24,-9,-15,4,28,12,-6,-4
-2,-31,-40,-7,31,0,-4,-6
32,-2,3,-11,-48,-6,-5,10
46,12,25,12,32,2,14,18
-8,10,21,15,-36,-4,1,3
-42,4,1,-22,-5,-16,-6,-7
-19,0,-12,-6,4,-11,-6,-9
60,-1,-8,0,-4,51,-1,-5
95,7,-11,17,26,-18,-7,30
-7,12,24,-10,24,48,14,-4
-102,-2,26,16,-14,-12,3,-24
-52,-11,-4,-3,-16,-26,-6,-14
23,-21,3,-20,-9,2,-14,-1
24,-17,-120,-14,1,10,-2,6
23,6,8,-5,-7,-13,4,8
14,4,6,-12,-6,-2,-3,4
7,-2,13,15,3,-12,-3,3
1,10,8,-2,-9,-19,-5,2
0,9,6,6,10,12,2,1
3,6,8,4,-19,-9,-2,0
-9,-15,4,2,31,31,0,-3
-2,-7,-1,-13,34,7,6,6
23,13,-55,-8,-40,-1,0,8
31,12,56,-2,-14,-25,-4,-3
-128,-32,-37,-3,-36,12,0,-9
-21,-12,10,1,7,-2,4,-25
19,-1,-7,-5,42,6,-12,-4
17,3,-2,-3,-8,-4,-3,2
4,3,7,12,0,-6,4,6
1,1,-9,-6,1,33,9,4
-4,1,-1,9,7,-16,-4,3
5,-5,-3,-10,24,-3,1,8
26,2,-7,-16,-117,-27,1,20
27,4,26,42,67,27,4,1
27,32,21,14,54,67,17,-6
-42,-3,-39,-44,-35,-25,-23,-38
-99,-24,-1,-18,-27,-13,-10,-23
30,-11,39,5,-27,-5,0,-16
2,-9,-68,0,3,4,0,-4
43,0,-23,-5,32,-16,-4,10
33,2,11,16,7,-7,8,20
13,5,5,-5,-46,-7,4,8
3,-3,4,-4,6,13,10,8
7,15,5,15,-30,-3,5,4
13,10,38,2,3,-16,-4,0
-79,-19,-49,-31,19,24,8,-16
4,-10,-17,23,2,-7,-10,-4
10,-8,-6,-17,-8,-10,-10,6
-11,-2,13,8,2,7,-5,-4
2,0,-5,5,-14,-9,0,15
13,15,-5,0,10,-9,0,-1
24,14,9,3,2,-9,3,-1
-24,-5,-2,-1,3,-2,-2,-12
-6,-20,-6,-6,-16,-14,-7,-19
-32,-1,0,19,40,17,-9,-2
8,9,5,9,14,-13,4,2
-13,7,12,-2,-28,2,1,-1
20,-5,27,-15,-1,2,1,6
47,-13,-33,0,-1,-16,-5,11
21,-8,-22,-20,-24,21,-6,-8
-37,9,15,20,13,4,1,6
-12,-2,30,-2,-10,-23,-9,1
51,10,-19,4,17,14,2,13
19,10,7,8,-43,19,9,-23
-37,0,4,-27,-6,-25,-3,-16
26,-5,14,-2,2,-4,-5,-2
3,2,-21,-5,14,-29,-2,9
19,-19,2,6,18,51,3,6
14,-12,-17,-1,-7,-5,-4,16
49,15,-3,1,-28,0,13,2
-28,8,-20,-6,-11,-20,-14,-19
-49,-17,18,-4,35,-1,-10,-21
29,0,20,-12,-13,0,2,1
20,12,17,31,-3,1,3,4
8,5,40,-14,-24,-7,-2,4
9,-9,-70,10,31,2,0,6
5,-13,-18,-12,5,2,1,6
58,27,34,15,-21,-4,2,19
-3,4,-22,-24,-8,-20,-9,-8
-73,-16,-5,-7,-28,0,-4,-5
32,-7,5,-2,9,-19,5,-3
-50,-7,7,1,10,21,-8,-12
20,-5,-5,-4,-12,-8,5,3
7,2,3,7,0,7,-1,-8
23,2,-6,-20,-3,2,1,11
1,-6,-6,-6,38,6,7,-2
-57,-2,15,5,8,-34,1,-5
6,11,12,-4,-44,-32,-13,-5
23,8,-42,4,21,39,13,20
80,11,53,-3,-2,35,1,23
6,7,32,-18,-48,-25,-19,-28
-45,-16,-42,-11,-12,-20,-15,-41
-81,-22,-15,2,27,-12,5,-18
-6,-8,28,-5,-14,23,5,3
35,6,-68,7,11,-2,4,12
17,0,6,-3,21,-2,-1,11
30,0,8,3,-8,3,-2,6
13,3,1,-5,0,-18,15,-2
-104,-10,5,-20,-9,2,-13,-17
12,8,13,11,32,6,-2,1
4,3,-5,7,-36,-6,-2,-3
8,1,33,6,-8,-7,5,6
7,-4,-13,-6,3,1,-2,3
19,-1,-17,2,-15,-11,3,14
30,-4,-12,0,17,3,2,0
-11,20,18,-18,44,-6,-12,-5
-39,-1,15,20,-16,-4,1,-12
-25,-19,-17,3,-13,-4,-1,-21
-10,-2,-14,-19,-12,-2,1,-2
-17,-11,26,23,-17,-36,-9,-5
16,3,-6,27,113,-28,-7,5
31,7,4,-11,-125,29,8,4
20,-4,-6,-1,24,-7,-8,5
-19,1,19,-18,12,21,0,-1
-26,-15,-38,-19,14,-14,-8,-14
16,-23,-67,-11,4,-5,-6,-11
25,23,15,1,35,1,7,5
-82,1,62,7,-59,-32,-3,-9
-7,-11,-78,-11,33,9,-4,1
-10,10,14,20,-19,3,3,3
20,-7,-7,16,-4,-7,-5,-10
10,-1,7,1,8,4,25,16
80,7,-12,-21,-4,-6,-6,14
-60,2,9,6,-2,-5,-7,-9
-88,-23,6,-7,3,1,-6,-21
12,-4,-7,-6,2,1,-3,-9
22,7,-13,-6,-9,-5,-2,9
14,1,5,-5,1,0,6,16
12,-5,14,-14,-4,-1,1,11
24,23,33,32,-20,6,-2,-15
-4,27,-40,-2,68,-4,0,-8
-34,-31,19,-15,-45,24,-4,-11
-54,-30,-22,14,-3,-21,-10,-16
10,-11,-23,-42,-6,-14,-3,12
37,8,-4,-8,-53,4,-6,11
30,33,52,21,127,5,7,18
-4,-7,-32,-4,-128,10,3,-9
-108,-17,-25,-4,70,-19,-7,-19
48,-6,1,1,-12,4,7,1
-8,-3,-13,0,-6,-1,2,3
17,-3,5,2,6,-9,-4,3
11,0,3,-2,-3,-4,-2,3
6,1,11,1,19,11,-1,-3
1,2,7,4,1,6,1,-1
5,11,12,6,14,-6,-2,1
13,-13,-27,1,-4,1,1,0
16,-15,-44,-40,1,-1,3,24
3,12,27,1,-15,-6,-6,12
-18,5,9,-16,-23,-6,-9,-28
-29,-24,35,0,-7,-1,9,-24
21,-14,-95,11,28,-15,-15,2
19,20,9,2,-14,15,-8,17
26,7,26,6,-3,-11,7,16
9,6,14,-10,-20,-20,4,1
30,20,22,21,72,-22,-6,-6
-33,-9,-11,2,-50,59,18,8
-17,-19,10,-27,-40,-6,-12,-8
31,0,-24,-18,-10,-12,-8,-4
-49,0,6,-1,14,-6,5,0
39,-3,-7,6,41,3,7,12
-13,4,-3,-3,-56,-9,-4,3
-55,2,17,3,27,-15,-11,-10
-12,-7,-4,21,31,22,6,-8
28,-2,5,-16,-8,-14,-2,12
1,-3,0,-14,-18,-9,-6,-12
-3,-1,-15,13,-5,-9,-1,-19
2,-5,-4,0,7,2,-2,15
-3,4,-2,-4,0,-2,0,1
33,6,24,3,-16,-2,-1,7
57,2,-13,7,8,-6,-2,0
-106,-12,-13,5,36,8,3,-16
-2,3,4,-10,-20,12,17,-2
-11,-3,25,10,10,-4,-22,-6
-15,9,-9,6,-6,-12,-3,1
28,5,11,-5,-35,14,7,-8
-18,2,37,1,3,-24,-4,-6
-6,-16,-94,-17,-21,59,1,4
31,-9,-6,-14,8,4,-1,5
25,1,2,-4,33,-14,3,5
-2,0,9,10,0,0,1,7
7,8,17,11,20,-22,-2,7
4,1,-12,-6,-7,-10,0,3
-12,-8,-11,-24,-37,-7,-2,-8
-8,0,1,-12,11,-28,-3,-13
-3,1,16,-1,-17,9,-6,-7
10,2,6,8,7,9,-1,0
27,9,9,14,29,-16,0,10
8,6,13,-17,9,31,11,11
9,7,-42,0,-1,-3,0,8
-7,-6,-11,8,-62,-39,0,-15
-94,-23,-21,-20,40,18,-15,-22
15,-4,-6,-10,-11,1,-3,10
-26,-10,15,-7,-5,24,-3,-15
-17,-2,-28,1,15,2,3,-9
-22,2,-2,10,-11,-13,-9,-15
33,-6,-5,2,-1,12,3,15
8,9,2,-8,26,-17,-12,7
-11,26,27,6,-69,15,3,2
26,5,-6,1,-11,-23,-1,3
-3,-13,59,-27,5,-14,2,-3
-10,-16,-15,15,16,11,-5,-12
-5,-9,-45,-19,-10,6,-5,-2
-3,-11,-16,-7,-5,0,0,0
1,2,4,-5,9,2,-1,4
3,13,15,6,12,7,2,-1
-6,-5,-2,-10,-6,18,-6,4
-11,-14,18,1,32,8,3,-8
-10,3,16,-1,16,-23,2,1
61,19,14,-14,-41,-4,-6,17
69,11,8,11,-103,4,0,8
-85,-3,-3,5,7,-1,-2,-9
-61,-13,-6,23,79,19,6,-28
-29,-16,-32,0,8,-1,-3,-16
23,-6,-6,-13,-9,-23,-2,7
17,5,7,-9,0,35,4,8
15,-4,0,1,-15,-7,-2,6
19,9,2,-2,-10,-4,10,3
11,22,26,20,53,-4,-8,11
2,-17,55,11,-2,6,-2,-9
51,-4,-98,-16,-10,1,14,16
20,15,15,-1,-22,-16,-26,-8
-27,-1,0,-6,2,21,3,-14
-27,-31,0,-6,-12,-5,-3,-35
41,2,-7,-2,0,-7,1,7
39,8,15,8,1,2,-6,-7
-33,-3,0,6,8,1,-1,2
-10,-6,-21,-5,-8,-8,1,-2
10,-14,29,-35,-8,-4,-3,4
6,-4,-8,-3,-2,-3,-2,3
19,12,3,24,31,-19,-2,10
10,4,0,-11,66,86,11,-16
-53,-4,-24,-21,-57,-50,-11,7
24,-12,0,-8,-39,8,2,1
13,-10,14,3,-5,-15,-1,-8
-34,5,-19,-4,7,1,3,-6
-12,8,1,-18,8,14,-1,-6
-1,2,30,10,4,-14,-7,-4
4,-8,-51,3,14,12,-3,0
2,0,0,-16,-26,-2,-8,-1
1,4,5,7,21,-28,0,6
5,4,9,-6,-47,30,8,17
32,-7,-17,3,40,-19,-4,1
19,-9,-7,14,21,-5,-5,-2
-61,-3,-13,-26,-9,-11,-7,-20
-13,-3,16,1,-82,11,-11,-20
87,39,25,-2,6,-5,-6,29
-80,-29,34,-20,-4,-17,-4,-6
-89,-39,-64,-12,28,14,-4,-40
-17,-8,6,-3,3,-4,0,-6
24,5,7,-3,-47,13,-1,4
43,9,6,9,12,-18,0,17
-11,17,20,10,-5,11,13,6
9,-1,11,-12,3,1,1,-7
-36,-3,-33,32,13,-8,-4,7
-107,-13,-7,-2,3,7,-3,-17
8,-19,-7,-19,-20,-8,-13,-3
16,5,11,-1,27,9,8,20
47,14,17,6,-30,-20,-5,-1
-28,-2,1,4,-26,-13,-7,-28
2,-9,2,-17,4,-9,-6,-22
-83,-15,-39,-4,-1,-11,-6,-8
26,3,7,-28,-11,15,-2,12
44,-7,43,-7,-21,-15,-1,14
-5,-4,-51,53,9,-16,6,7
-46,6,-8,-10,11,13,4,-5
-5,-25,-3,-15,-20,6,-13,-18
0,-7,3,-16,-11,-2,-6,-12
9,4,11,3,33,-4,-2,0
9,5,2,-10,-30,-9,4,2
4,-4,-8,-9,-39,-7,-6,4
59,1,-14,11,46,8,11,19
-116,7,47,-2,-44,-4,-3,-19
22,3,-12,10,47,-22,-10,4
72,-7,-16,-1,15,30,6,1
-91,-11,14,12,-4,3,4,-12
-38,5,-12,14,1,12,3,-6
-4,-5,-1,-28,-41,-4,-12,-7
-10,-8,-11,-22,-16,-3,-2,-8
12,-5,-4,5,3,-29,-11,5
17,0,-2,1,-4,0,0,6
6,2,-2,-5,-1,17,13,10
6,-7,8,11,16,-13,4,10
21,4,-5,-6,-3,17,-8,2
28,21,0,14,-4,-5,-1,9
7,7,19,-8,-2,5,-5,-6
-12,-10,-16,-8,53,-12,-7,-9
-97,-21,-8,-4,-54,-26,-7,-20
-48,-16,-1,-1,-2,2,3,-10
21,-3,-3,11,-8,-9,0,2
20,5,30,-15,-12,19,-2,2
19,4,24,-3,12,-6,-7,8
59,-10,-94,-2,23,-7,-4,20
-6,0,3,-12,10,-7,1,4
-100,-1,22,13,-56,-1,-5,-24
45,-18,-46,-3,-25,57,3,0
-50,-6,-7,-5,25,11,12,-8
-8,-9,6,7,-9,-4,-10,-9
-1,8,12,-9,-1,-2,-1,3
14,-2,2,4,19,-10,-5,-3
17,4,-2,-19,-18,-17,4,7
17,5,-32,-5,21,-3,-5,1
30,13,55,25,-44,3,0,25
34,-5,-5,-15,-33,-22,-3,2
-56,-29,-65,-13,45,4,-3,-28
-29,-14,17,31,10,-26,-4,-5
19,3,-1,-4,19,33,0,-10
4,9,0,-5,-5,7,-4,1
-61,-13,16,-4,-6,-11,-1,-11
4,2,0,2,2,-3,8,-6
-14,6,-40,-7,-1,-7,-2,-2
-44,-4,58,-7,-14,-7,-6,-4
15,-9,-48,-14,-4,-6,2,5
15,6,29,-8,7,-7,-1,11
20,14,-13,-6,0,6,6,15
13,-1,-5,16,-26,25,2,0
4,-1,17,-13,6,-1,5,-13
-8,-1,15,-5,-13,-5,-21,-13
-13,-6,-9,-3,12,-21,-9,-1
16,1,-9,4,31,4,16,12
34,3,7,12,-24,21,5,2
-68,-4,3,35,39,-19,-7,-8
0,-3,-10,-9,54,-15,-4,-4
4,-17,-48,-2,-79,23,2,0
7,-10,-9,-16,-23,-5,3,4
-4,-3,0,14,-40,5,-7,9
4,-8,-3,13,34,-12,-8,-5
17,13,37,-1,13,-34,1,-12
-5,16,9,-4,-1,69,16,7
20,-16,-56,3,11,-22,2,0
-76,-20,1,1,18,-26,-19,-10
31,-5,-6,-7,-12,23,5,-4
30,3,17,3,4,-2,-2,11
-3,17,14,-5,48,7,3,4
-40,2,1,-14,-112,-21,-8,-9
44,-14,14,-17,-22,-26,-13,-31
-3,0,9,21,59,29,7,2
-2,-1,4,2,-17,-6,7,3
12,-2,-13,4,4,-1,-20,-10
12,-11,-25,-15,10,7,0,3
8,-4,-2,1,-5,-17,2,10
10,5,-4,5,5,1,4,4
-5,-2,4,7,-12,-25,-10,-3
20,8,23,6,-9,10,-2,0
-3,16,10,-5,23,-2,5,7
-22,-8,-8,-8,-2,52,7,-21
-17,-5,1,-5,-3,-23,-2,-7
-4,-24,-58,-17,11,19,-4,2
