Channel_1,Channel_2,Channel_3,Channel_4,Channel_5,Channel_6,Channel_7,Channel_8
45,3,-5,-1,-9,-5,-1,4
37,0,-5,-24,-48,-33,6,5
25,8,-10,48,21,-10,2,44
1,2,-7,-82,-25,-8,0,35
-13,8,16,23,15,-1,9,7
-10,-5,-23,-7,41,-49,-13,-8
-53,-6,-17,-48,35,4,-1,4
-10,-8,1,-10,-128,10,12,-9
32,4,9,31,110,-37,-13,-8
-80,-9,-3,-8,-23,80,7,-5
-18,-12,-5,13,5,-85,-14,-5
127,15,-4,-26,2,97,5,23
127,45,0,-36,-16,-1,-9,28
-128,-108,-40,-60,23,-128,-48,-128
127,-8,35,55,46,127,15,15
127,13,-12,-42,-53,67,11,31
88,7,9,82,-11,-45,0,33
29,5,-3,-69,72,28,-4,-1
-105,-13,-2,-2,-27,-22,-10,-40
-1,1,10,13,21,-35,-7,0
-128,-22,-13,-27,61,-20,-12,-6
79,-13,-1,-4,-13,-9,-1,-5
-77,-5,-4,30,12,-12,-10,-28
-47,-18,-11,-9,-7,-9,-11,-27
121,21,9,-2,-17,-1,6,34
-117,1,9,-4,0,-5,-4,53
127,50,30,18,101,-60,-17,46
-128,-50,-2,78,8,-71,-17,-26
41,-23,-36,-115,-25,42,-6,-12
93,13,22,23,-27,59,0,18
-12,-10,-9,-6,34,-8,-10,-32
127,42,18,8,-49,-33,-3,75
-128,-10,7,-7,-9,-119,-18,-36
-128,-49,-11,11,127,127,14,-48
36,7,-5,5,7,-10,-1,9
25,8,0,-3,13,-77,-13,9
-5,4,-6,25,50,5,-9,23
29,6,-2,-33,-54,96,29,-1
124,12,-17,-24,-31,-19,-16,-4
-106,12,-4,-26,10,-19,-8,-39
-128,-73,-9,-33,-14,-25,-10,-37
127,32,21,-3,14,31,13,40
66,-4,-17,-12,-16,-8,-10,8
67,19,5,-14,-29,-4,-1,9
4,-2,-10,-3,5,-14,-4,-10
55,9,14,23,39,-6,-3,-2
-128,-28,-22,-49,3,-35,-5,25
61,3,-11,6,-66,2,9,7
-15,-16,-16,-14,-13,-31,-15,-43
127,22,8,7,2,-92,-15,38
86,-4,-24,-97,50,86,7,-4
-128,-28,-4,4,-87,-126,-12,-16
-99,-11,1,7,1,50,1,-18
38,2,5,-6,35,74,-5,-16
34,9,17,-12,-59,-32,-4,10
13,-1,-7,-18,-22,-24,2,12
-6,-5,-20,15,44,-57,-10,4
-7,10,-7,0,-39,-16,-7,0
127,22,3,14,73,-20,-3,48
-128,-11,-13,4,9,97,26,-15
-128,-39,4,35,-3,-6,0,-28
113,-10,2,3,15,-31,-17,-24
127,-3,-14,-14,-24,4,-14,5
127,44,10,1,-76,-57,12,51
-128,-40,-9,14,26,4,6,-24
127,-1,-1,-13,6,-34,-24,-21
-128,-9,-11,-13,-23,71,4,-38
22,2,9,-32,-77,-15,-9,-7
90,7,-2,26,-15,-49,-4,46
86,20,-1,-19,68,16,0,17
-128,-4,-12,-12,19,-50,-7,-24
-128,-52,-4,19,6,5,1,-57
-103,-15,-11,-17,-13,9,-11,-20
123,8,5,2,-39,-2,5,22
16,-1,12,-2,-11,-17,-2,7
24,-1,-37,-57,-14,-43,-3,17
49,21,-5,31,-10,-6,-2,7
20,8,10,-25,118,-12,-14,21
-40,-3,22,25,-64,127,28,31
-9,-7,-6,-72,-116,56,25,9
-95,-8,6,12,67,-31,-14,-43
9,2,-2,59,68,-53,-4,-6
26,-3,-22,-13,-25,17,-2,6
13,4,-13,-123,-18,20,-3,9
81,3,-3,64,31,-97,-12,14
127,72,30,16,-13,83,22,55
-128,-128,-20,-29,-30,41,2,-100
127,0,-23,-22,-5,-48,-25,-3
26,7,16,-10,9,-19,-5,-33
114,2,-49,25,43,-28,-8,23
127,30,14,3,-45,22,8,37
-128,-9,4,-8,2,-25,1,-20
-128,-37,1,-4,10,-19,-18,-60
6,3,7,13,4,-111,-20,20
69,0,4,13,37,127,58,0
28,1,-12,-58,-73,29,7,17
0,-4,-6,-14,16,-25,3,17
-22,3,5,25,59,-26,-8,4
-33,13,-17,10,7,-37,-7,3
-36,2,14,-20,-31,-41,-11,-5
-29,-2,-5,5,-5,-13,-4,0
-4,-9,-23,-61,-8,-48,-14,19
2,14,18,43,-34,-31,-10,-23
127,-1,-27,-102,-60,127,40,32
-128,-54,-24,-15,-2,-38,-2,-53
56,-2,23,13,21,-13,-6,0
127,7,-3,-7,-76,-92,-19,23
-128,-3,2,20,-1,18,1,-2
107,12,6,15,24,-46,-8,13
-78,7,-20,-22,52,76,-3,-10
49,-19,-19,10,-27,-41,-9,26
26,16,-9,-41,-1,29,0,-7
-128,22,19,21,-41,-29,-17,-23
-119,-39,-6,19,14,-40,-22,-11
64,-5,-26,-33,7,10,0,29
110,25,17,70,37,60,13,-9
-128,-32,-4,-40,-62,9,12,-25
106,1,2,-2,-13,-58,-2,17
64,9,2,-30,7,-9,1,25
30,4,13,73,68,-15,-3,14
98,4,-12,-84,-54,85,10,14
-107,3,-12,1,-16,-34,-6,1
-55,-10,3,-4,9,40,10,-5
-66,-3,6,-5,14,10,4,-10
-7,2,-9,22,20,-11,-4,1
60,13,19,-8,14,-109,-21,2
-82,-5,12,-25,-23,7,-8,-14
-32,-20,3,10,12,93,26,-14
15,16,4,-22,-5,76,12,8
127,-10,-13,-5,24,-22,-11,84
-39,-5,22,16,-47,-57,-11,-50
-128,-33,12,-18,-3,-32,-13,-53
-113,21,6,24,43,-13,-7,-2
127,29,-1,-6,-43,-24,-16,13
-128,-31,8,-31,-72,-25,5,-24
87,-1,7,19,72,-21,-5,12
127,27,11,26,2,103,24,57
-128,-35,-36,-46,-27,-82,-3,17
-3,6,5,17,11,-24,-24,-42
-6,0,1,9,-4,52,-5,-15
84,8,6,0,-1,-29,-3,8
-98,-4,-14,-36,-40,37,11,5
-3,5,10,51,18,-19,0,8
-9,-10,-12,4,6,-27,-6,-1
33,-5,-6,10,28,-44,-13,3
-22,3,4,6,41,33,7,0
12,3,4,-12,-88,-38,6,4
62,8,6,-2,32,78,18,4
-128,-11,-6,5,49,-22,-10,0
-72,-2,-6,-10,-41,-10,-5,-16
127,16,11,9,3,-92,-15,23
39,3,-14,-16,-5,-26,10,-29
25,23,6,-6,-13,7,3,39
127,13,12,8,-3,99,18,15
-128,-56,-3,4,43,24,-1,-54
127,-2,-7,-57,-65,-115,-23,-27
125,24,11,37,36,86,7,24
66,5,-5,36,21,-3,-4,14
36,6,0,22,12,-47,-9,11
38,9,8,-40,-23,-9,4,17
-113,-8,2,11,35,20,5,2
-16,0,-8,-10,-8,95,22,5
-11,5,-3,-14,8,-14,0,8
-17,-9,12,13,-49,-10,-3,5
7,19,6,16,97,6,2,-17
-29,-11,-14,-30,-29,-44,-24,-9
114,27,-3,42,46,-54,-10,5
-128,-57,-13,-15,-28,126,20,-37
-68,-8,2,-16,-26,-40,1,-42
60,4,1,-3,15,-7,2,12
42,3,-4,-1,29,23,11,29
13,7,-3,51,-10,-90,-20,-7
121,10,7,-11,-29,21,-10,9
-51,-1,-15,-17,-47,34,19,7
-88,-16,4,-9,-46,40,10,-2
-41,1,16,11,16,-12,-12,-18
-3,9,-4,3,24,-61,-16,7
21,-11,-6,11,69,31,7,9
-27,-1,-2,-14,-52,-79,-19,-9
-4,10,11,42,-20,39,11,9
-5,6,3,-34,-55,49,8,2
-4,-4,1,-27,31,-12,6,2
20,-4,-7,25,16,5,-9,5
-26,27,6,18,15,-20,-13,-7
127,-17,-8,-5,-20,-25,2,24
-128,-43,-15,8,13,-11,-8,-80
74,-10,12,6,-9,-49,-8,-21
127,22,-6,-6,39,89,1,-1
63,27,3,-59,24,-46,-7,16
60,11,2,28,-71,63,6,18
-111,-20,30,-5,27,-6,-10,-10
28,-9,-75,-2,-15,-40,-4,0
23,4,7,-31,7,38,13,10
-2,12,21,18,8,-3,-1,11
127,25,-48,16,-27,-1,0,83
-128,-48,-9,-12,28,-3,-7,-58
-111,-20,13,30,71,-84,-23,-81
14,-9,6,-7,-27,40,-8,6
127,17,-3,-24,-80,52,13,7
-122,9,17,5,-23,12,-3,-10
36,-4,-4,-7,22,-22,-9,-9
18,-18,-2,6,0,-45,-6,2
8,3,-9,43,5,-49,-5,10
38,13,3,19,52,121,26,25
-22,0,10,10,-34,76,11,4
58,3,-18,-56,13,-39,-9,-13
-17,34,14,74,50,-77,-24,5
-21,-26,-2,-26,-62,63,23,-2
-104,-19,-9,-33,-5,-62,-14,-17
-2,3,-7,-10,16,52,2,-10
82,1,-12,-14,-45,-15,-3,26
48,16,16,11,47,-30,0,13
-74,-31,-21,-11,-1,-6,-5,-23
52,23,-1,7,-21,-42,6,18
29,3,14,-35,0,21,-7,-49
-99,2,5,6,12,47,25,10
1,-19,-15,-4,42,-32,-7,-11
7,-3,-5,-20,-51,-56,-32,-22
26,-7,-22,-4,29,-50,-14,-14
127,23,8,51,-43,127,36,44
-15,2,20,-48,-57,-7,-1,4
-70,8,3,38,48,10,10,16
-76,-37,-40,-8,7,-16,-3,-44
-52,-9,-7,15,14,-21,-5,-26
115,3,14,-15,-21,-18,-6,2
127,65,14,-2,-2,-3,-1,63
-128,-34,1,-22,24,-3,0,-8
-128,-50,-4,20,-31,-16,-7,-104
9,-12,-14,-30,-9,-19,-6,-12
127,-7,2,48,29,-52,-8,22
-128,0,-13,-12,18,127,19,21
-37,-17,-5,-76,46,-37,-13,-15
67,11,8,75,-76,74,9,4
-4,8,-17,-60,-79,-15,3,12
23,5,3,6,-6,-79,-15,5
-60,-1,-5,13,55,-6,-6,-11
81,14,-4,-18,4,68,9,19
-128,-44,-22,-15,-14,-22,-16,-39
127,38,18,18,11,-24,3,66
-128,-36,12,8,2,-41,-20,-53
123,-16,-20,-41,8,59,-10,-38
83,18,-4,17,-10,-82,-15,5
24,-6,-8,-7,-31,127,39,-4
50,5,0,-8,29,-48,-7,22
56,20,4,-21,-25,-22,-5,9
-128,-15,5,-9,-20,-33,-4,-18
-6,4,13,12,12,-33,-12,-13
6,-7,-14,-6,24,-21,-8,-1
6,0,2,57,-8,7,17,7
-73,3,21,-41,-39,-1,-4,3
32,-9,-9,-46,23,-3,-10,0
26,13,0,-10,-29,1,-3,-21
-24,-5,-2,15,0,-14,-5,1
-12,4,-8,-8,-6,15,-1,14
-33,-10,-3,21,29,14,10,25
-54,-12,2,-3,30,-128,-15,-15
27,5,7,-11,-103,98,4,-15
-36,10,4,30,33,9,1,-7
-128,-31,-19,-11,-12,6,-9,2
17,7,12,10,14,-21,-11,-18
28,-4,4,-8,24,-32,-9,0
11,-4,-10,-34,-16,28,-4,-2
15,19,4,-11,-12,-27,0,4
7,-2,-8,7,-41,-32,4,5
-1,0,1,-54,17,1,-9,-1
4,-4,17,120,70,5,-10,-2
127,36,-5,47,14,-128,-23,26
-128,-58,-31,-100,-31,127,26,-11
-128,27,17,5,-94,-47,33,-31
-79,-28,-24,-10,-6,-85,-39,-67
124,-3,-5,3,5,-58,-26,7
32,-3,0,-16,-55,-20,-8,1
30,0,9,34,51,-9,1,8
5,-4,2,31,7,1,-4,9
-4,4,-9,-19,11,10,1,9
-10,-1,-9,4,-15,5,6,8
-15,0,-3,-4,0,42,2,2
-9,1,-12,15,24,13,2,2
-18,1,6,9,13,5,-2,-8
-13,-8,-16,-41,-8,13,0,3
-13,-3,10,26,-23,1,-6,-7
-8,-2,-1,-19,11,7,-1,-2
-9,-4,-1,9,-13,3,-2,-2
-13,-13,-16,-13,-21,3,-3,-6
69,4,8,32,0,-25,-6,1
78,50,30,-4,-8,-65,-1,57
-128,-30,-11,-17,102,127,49,-33
-60,-28,0,-18,-64,-4,-9,-47
82,-7,1,32,67,-48,-9,-23
42,5,-10,8,-30,-19,-8,29
4,0,-4,-11,-18,-8,-9,-24
-3,-8,1,22,27,-17,-8,-11
2,-5,0,-6,-27,-5,3,15
127,15,7,18,13,-113,-16,15
-128,-6,-6,-20,4,87,5,-26
-68,-8,-10,-91,3,127,60,0
26,10,0,-42,-73,-48,-4,5
13,-6,-12,-14,4,-62,-14,6
-5,-8,-8,30,67,-69,-21,0
-7,-6,-3,-11,-19,24,-2,-2
-9,5,12,34,-29,-40,1,8
28,5,1,46,41,13,-3,10
-23,-8,-1,-96,-57,51,-3,-19
-42,-6,4,-11,-33,17,8,4
-24,18,9,27,65,-7,3,16
-14,14,-20,10,32,-50,-22,-8
-128,-41,-6,-6,50,2,-14,-41
77,-15,3,-5,-116,18,17,-2
-25,4,-4,-7,-24,-46,-7,-30
117,24,10,1,21,-6,-9,17
-55,-13,0,1,22,-13,-4,2
-128,-30,-8,-19,-34,41,25,-2
96,-12,-17,-12,-9,-16,-3,27
70,10,2,39,-7,-23,-6,15
-128,8,11,-7,6,-10,-2,-55
-23,-20,-4,-9,-4,-17,-9,-15
16,-7,-10,15,0,-1,-5,0
10,3,0,-17,9,6,4,8
1,7,8,78,21,2,-1,8
-7,1,1,-55,20,-6,-5,2
-18,-13,-15,-51,-79,-95,-12,0
16,4,17,66,91,40,12,0
-54,-1,-9,-47,-45,40,12,26
-40,-2,16,-26,-90,-4,0,-12
-2,-10,-29,-46,-49,-42,-18,-1
36,10,1,9,26,-31,-7,3
12,6,4,38,70,-39,-11,-6
31,3,0,-2,-10,-22,-11,14
-56,-30,2,-14,-39,-13,-7,4
49,-11,-21,-23,-14,24,-6,-28
58,20,-8,-31,-39,43,18,37
-128,-22,-1,32,63,-15,4,-38
0,-5,21,21,6,0,-7,-28
43,-5,-13,-2,-35,-32,-15,1
33,1,-17,-20,11,1,-4,12
15,1,-5,7,-10,20,5,9
0,-4,-4,-3,-24,-36,-5,2
-9,-6,-14,-47,-17,-79,-10,-3
0,-7,-1,42,6,60,8,4
28,13,19,38,26,-19,-4,4
-53,-10,0,-25,37,26,8,-5
28,14,5,13,-113,-10,3,5
-47,-9,-18,-6,43,-10,-5,3
6,0,8,12,-45,-37,-9,-12
32,11,-14,-8,15,-9,-3,16
68,-12,-10,-4,32,0,-9,-1
24,-1,4,10,10,-1,5,13
54,14,-1,3,19,-22,-7,-9
-128,-18,-14,-14,54,14,-3,-18
-43,-20,4,8,-35,16,3,-15
-47,-4,-1,-12,-46,-3,-5,-3
115,11,17,-5,-15,-18,1,37
-36,12,12,-10,25,4,0,-35
25,-7,14,30,-3,-3,0,-11
-22,-7,-26,-8,39,0,-13,-11
-38,-9,0,20,17,-4,-8,1
14,5,12,-2,0,-1,-1,2
20,-7,4,-28,2,-49,-11,-1
-5,-8,-5,6,-67,-88,-10,0
-31,-3,16,42,8,45,14,-2
47,27,-19,-16,95,127,24,4
54,12,27,24,-59,-23,-7,10
68,-15,-8,-62,-33,-28,-11,-17
-128,-38,-11,0,23,-30,-2,-38
127,6,-11,21,-58,-82,-21,7
-128,-41,-9,-32,14,72,8,-45
82,7,9,65,12,18,0,-27
127,7,-9,-25,41,25,-1,41
97,23,-2,19,-66,-15,-8,8
9,8,1,18,60,-7,-1,-7
-128,-45,7,-12,-59,-14,-7,-37
73,-5,13,-11,-17,-3,1,-1
63,12,-10,0,21,0,-4,12
74,1,0,24,19,-7,11,29
-32,-5,-22,-1,6,9,-4,-31
2,-4,4,-3,-25,-19,-5,8
-61,-2,3,-14,-10,41,6,-18
107,12,4,1,21,-23,-8,32
-128,-15,-7,-2,-40,10,7,-7
127,16,13,3,80,36,16,23
-128,-17,-6,-9,-40,45,-5,-18
-31,-5,-14,-20,20,8,-7,-37
4,-1,10,64,-39,-55,-11,-3
51,2,-6,0,5,-12,-3,8
36,-2,-6,-14,16,4,-2,5
-19,-15,-18,-50,0,-4,-1,-4
-4,-1,12,80,-18,-11,-5,-2
-3,-5,-2,13,11,-5,-3,-3
-2,4,-17,-28,20,4,3,9
-7,2,7,-2,-16,-5,-4,2
10,-4,-12,-16,6,-21,-5,8
-12,3,-1,1,-8,-29,1,3
8,-6,3,-5,25,82,7,-26
36,3,6,9,8,-109,-22,28
-23,17,23,-4,79,61,5,-10
-22,-5,6,51,-28,88,5,-22
-2,-15,-17,-58,-97,-45,-3,-17
25,3,27,23,-12,-2,4,9
-13,-5,-29,38,57,33,4,6
9,4,8,21,-23,-42,-1,8
4,12,-8,-128,-28,-29,-9,-12
-26,-6,-10,25,5,-1,-7,-15
127,18,-2,63,-4,-68,-10,44
-45,3,12,46,81,124,11,-1
-8,-43,3,-22,-26,-51,-11,-26
-64,2,1,12,-37,-14,-1,-24
61,7,7,5,111,-16,-18,-13
127,10,-15,-17,-117,127,37,34
-128,-19,-12,-52,-45,10,2,-7
29,-10,-9,-2,40,-23,-13,-12
64,0,16,41,90,-34,-4,30
-23,6,3,-15,-44,-1,12,-9
21,20,-5,21,-26,-28,-2,-1
-84,-28,-29,-21,-25,-36,-17,-31
-6,-3,17,15,10,-15,-11,0
-3,1,-9,1,-21,-45,4,8
-4,-1,-17,0,-13,37,13,1
-13,-2,-8,26,34,-1,-6,4
-29,2,-1,-67,8,-29,-6,-9
-4,-4,-15,-31,-112,16,-3,-6
-8,-8,3,5,14,-66,-6,-4
-30,-5,1,21,46,-4,-18,-11
89,4,5,-13,35,65,20,24
99,28,5,-7,-71,12,5,14
-128,-67,-25,1,124,-65,-32,-52
24,-2,-2,19,-127,127,50,-11
127,9,7,-26,-21,-11,0,44
-128,6,-2,-4,17,-14,2,1
45,-4,17,-13,10,-23,-11,-33
12,3,-17,11,-11,-44,-17,-7
22,-4,5,15,34,1,-4,18
73,9,-11,-11,31,-58,-13,-6
-128,-24,1,-9,-6,127,55,0
-66,-10,-10,-26,-39,-15,-12,-12
-8,-1,1,-12,-19,-16,1,8
12,1,7,26,10,-22,-6,1
11,10,2,36,59,6,4,6
16,-2,-2,-21,-26,-38,-7,0
-68,2,4,-20,8,-39,-5,-3
101,6,4,12,29,-21,-8,27
-91,9,-15,-77,-49,80,9,-20
48,5,-5,30,-12,-28,0,3
-67,-14,8,-45,30,-24,-1,-15
16,-4,3,8,115,14,-9,-9
16,-4,-15,-1,-54,127,33,15
75,4,-8,-11,-37,-47,-16,17
-49,0,1,14,-15,-57,-9,-6
-62,-25,5,6,47,-35,-12,-27
42,26,4,-1,-39,65,10,9
35,1,-9,-27,-7,-11,-1,-10
10,10,-10,1,40,6,3,2
38,-24,-8,14,11,-30,3,13
-110,-6,31,0,54,-8,-5,-29
127,8,-15,9,-26,-10,-5,32
-128,-26,-23,11,52,-15,-15,-59
20,-20,-5,-29,-111,-2,-3,-30
3,17,4,-6,0,-8,-2,7
76,11,5,19,3,-23,-4,16
-36,-3,25,1,12,-11,0,-1
-53,4,10,15,61,-2,-4,0
9,-1,-40,-6,-37,-10,4,1
2,-10,-11,5,18,21,-7,-4
2,5,8,-10,2,-43,13,3
-4,-4,7,6,-33,16,-6,-2
-6,-2,-4,-23,-9,-6,-6,-2
-4,6,1,3,-13,-82,-4,3
-7,2,3,-14,27,-38,-7,-2
-10,-6,8,48,-15,78,2,-4
28,-8,-19,11,51,68,11,-6
-32,-3,11,-44,16,-21,-2,-6
-59,-16,4,-30,-57,-29,-7,-9
22,-5,-18,-18,-37,-16,-7,16
101,21,-2,-41,8,-86,-12,25
-16,-10,10,31,-43,77,0,-41
-114,-13,6,2,17,19,17,-29
24,9,5,-6,33,-6,-7,-15
17,-1,-5,-31,-37,-48,-10,1
10,2,7,89,-19,-41,-9,3
44,13,-9,-32,32,69,21,9
-41,-27,-9,-28,21,22,1,5
4,-7,15,30,-11,-15,-1,-2
-97,-4,-11,9,4,-16,-18,-30
30,3,1,5,13,-11,-5,-8
50,2,-4,-15,-11,-14,-2,-2
-65,-8,1,6,-11,-7,2,-2
0,0,-5,3,11,-13,-1,12
-6,-4,1,5,23,-1,-2,-19
13,6,4,7,-10,25,-5,1
20,-1,-15,-33,-31,-27,7,5
28,9,16,23,72,-18,-9,19
40,-1,-7,-8,-19,58,23,11
-105,-12,-4,31,8,12,0,-28
-18,-6,-4,-9,19,-3,-16,-36
18,1,3,-8,-40,-39,-17,-5
16,0,-1,-19,-29,-7,6,10
5,-3,-8,-10,-3,-10,5,9
4,5,-9,19,20,-15,0,4
0,-3,3,-22,-13,-7,-1,-1
52,19,19,30,-6,-5,-4,9
-22,5,-2,7,-17,-8,-1,-2
1,-16,-24,-19,20,3,0,8
48,6,4,39,76,51,6,-17
-20,-23,-11,-55,-84,-28,-6,-7
-38,-6,9,12,0,-44,-11,-15
0,-9,12,4,-32,-45,-10,-5
79,-20,-23,-23,49,127,27,34
49,42,17,56,43,49,25,33
-48,7,-7,-47,-67,-26,-19,-59
23,-19,-16,30,0,-42,-26,-24
21,6,0,-25,27,-60,-16,-5
127,11,17,39,-42,-5,15,25
33,0,9,22,-25,43,13,27
-128,-34,-12,-24,-26,-11,-4,-35
44,-12,-11,-71,-32,-11,-4,-4
34,-2,-7,-2,7,-15,-5,1
25,2,0,-7,-22,-47,-8,3
9,1,-7,18,63,43,4,3
9,2,-2,16,-10,-6,-1,3
-4,3,-1,3,26,-43,-11,-4
-5,2,9,-12,-58,46,13,2
-2,6,-8,6,37,50,17,2
-1,-1,10,4,-5,-26,-3,0
-36,-15,-8,0,4,-16,-10,-7
-3,-9,-1,16,25,-92,-19,-7
-15,18,-6,-47,85,127,17,18
-43,-2,11,-16,-115,-60,-1,-18
-20,-6,-2,-13,-18,-17,-17,-12
-9,-4,-9,-22,-40,30,-2,-23
-1,-3,4,13,43,-65,-18,-9
82,21,2,8,37,89,13,3
31,-13,12,5,-62,-8,-12,-17
-128,-32,-51,-95,61,-22,-1,-17
67,15,-7,-19,-81,-8,1,19
-36,4,17,-12,65,-25,-7,-12
16,-7,4,11,69,37,7,4
31,4,-5,-9,-19,-45,-3,6
30,0,7,16,-60,9,2,12
-8,-1,-10,-17,-8,17,-4,-18
-3,7,12,-5,-15,-34,-6,-4
-7,-6,6,-25,-40,-23,-10,-9
-2,1,-3,22,44,52,4,-3
-4,0,-3,28,-30,-96,-16,-7
22,-1,-8,-16,46,120,12,19
20,-1,4,25,-57,-36,-6,-3
-47,-5,-5,-35,-7,-41,-16,-18
68,-11,8,17,-27,-2,-1,3
-26,19,21,48,20,77,17,1
17,6,-23,-115,39,-26,-16,2
120,19,3,-38,-45,-61,-6,5
-47,-21,1,31,73,-5,-4,0
-4,-2,-9,0,-1,1,0,1
28,-8,-20,-11,-56,49,7,4
-128,-10,3,-1,9,-32,-11,-36
15,-1,8,4,-8,16,9,0
26,0,6,-3,25,-8,-4,3
32,3,-5,7,-70,-45,-5,12
9,-2,2,-41,13,17,16,0
13,3,0,40,-31,-2,-4,10
-7,2,4,-25,25,-6,-5,-6
-17,-6,-17,-3,44,7,1,-9
-2,7,6,-4,-6,-25,-8,-3
1,-6,-15,-2,-10,-1,0,4
-4,-1,11,-8,-14,-9,-3,-9
-6,3,-16,-27,-1,-2,0,-1
3,3,5,16,-15,-2,-2,4
-6,-6,-13,-10,30,-4,-3,-5
53,-7,1,35,-7,-3,-2,4
30,6,-21,-91,22,30,15,19
101,8,-1,3,-55,-34,-12,-10
-128,-36,-1,9,14,-91,-13,-28
-19,2,16,24,32,127,11,1
61,-10,-18,-52,-32,53,12,-7
-17,-1,0,12,-12,-22,-9,-16
33,13,5,14,-5,-17,-6,-1
18,-3,8,-9,0,-35,-4,7
7,-1,-15,-45,-2,14,-7,0
-12,-2,-2,56,-78,-31,4,-12
17,1,-8,-40,7,28,4,6
23,3,8,1,83,17,-5,-2
-12,5,5,-11,-21,-38,3,8
2,-4,-24,-2,-14,15,-13,-12
-56,-4,-1,1,51,17,2,-7
15,-7,0,-4,-53,-42,-8,-4
1,-7,-2,-5,-3,-3,2,2
-4,4,0,0,1,-3,-1,-12
-5,-4,-1,1,3,-5,-2,-2
-10,1,-1,6,20,-9,3,-2
69,9,11,5,-13,-11,2,5
-34,0,-13,-21,44,0,-2,11
36,-11,1,-5,-33,-7,-12,-1
72,7,-1,21,-27,19,-2,-6
-128,-13,5,-4,-8,7,5,-3
127,9,-1,5,9,22,8,21
-128,-34,-26,-4,15,-1,-7,-43
-33,-5,8,-35,-5,-77,-11,-18
36,10,6,38,25,84,2,-3
40,5,1,-2,-67,-45,-2,11
-44,-7,9,49,89,37,9,-1
11,6,-2,-11,74,9,-14,-6
-14,-11,-13,-118,-128,-38,-6,-8
-7,0,12,-4,20,-1,0,2
12,-6,-18,-5,-2,-7,3,12
-5,11,2,9,-11,-6,-1,6
-48,-6,4,-1,-4,1,-6,-10
-21,-5,2,1,12,-21,-1,-9
-14,-7,-3,5,3,-21,-5,-1
73,6,7,-1,8,-18,-5,6
-64,-3,-11,14,-59,-22,12,0
19,-4,3,-10,-4,87,20,2
47,12,11,-36,-26,-17,-7,11
0,-6,-8,44,28,-47,-19,-20
-52,-32,-6,37,12,-6,-11,-14
-11,-9,-25,-35,-17,-22,1,12
48,39,18,0,-20,7,4,-12
-91,-15,2,-3,11,-8,1,-14
17,3,18,12,41,-8,0,-4
-1,-13,-30,-18,-27,-9,-18,-12
4,-4,-8,15,-58,-10,8,6
7,-2,4,-50,-26,-18,-3,4
-6,-4,2,-33,29,-52,-13,-3
-6,-5,0,18,72,33,-8,-6
0,-6,-16,-15,-116,-3,21,2
-4,0,10,14,-6,-24,-5,0
-13,-6,-14,-19,4,38,8,-3
44,6,5,17,-3,-15,-6,11
19,10,1,7,53,-35,-4,-4
-31,-19,-13,-8,-70,-46,-18,-16
-93,-8,-18,1,6,-3,4,32
-56,-12,-8,-6,84,127,13,-37
29,-1,5,-3,-37,-25,1,-1
-27,-5,-19,-8,7,-29,-5,-3
-23,-2,1,-4,-24,-25,-2,0
11,-4,-2,10,-3,-15,-5,-1
8,-3,-2,-2,1,-12,-5,3
4,1,1,-6,1,-3,-1,2
-1,1,-6,-30,-8,-3,0,-2
58,6,-2,43,5,4,2,22
66,9,8,-33,-17,2,-3,-6
-58,-38,-13,67,80,-72,-19,-28
48,9,-6,-105,-40,127,35,26
-128,1,3,1,-19,4,13,-9
61,15,14,34,-22,29,-8,-7
34,-9,-5,-14,-1,-20,-23,-18
27,2,6,13,10,-30,-4,2
12,-5,-1,11,66,-1,-1,10
1,-2,0,-3,-34,4,6,7
-2,0,4,1,-30,-2,5,5
-12,-2,-2,-17,-12,-1,7,6
-3,0,-6,10,29,-13,-3,11
-17,-1,-2,-6,-10,26,3,-5
-17,-2,-4,-11,-52,-37,-4,-11
-9,-1,-2,-6,17,-20,-4,-4
-6,-8,-4,12,-1,-31,-13,-2
-6,-3,1,-3,-34,5,-4,-1
-6,-3,-2,10,49,20,1,-2
-3,-1,-3,-5,-65,-27,10,3
-7,-5,3,1,0,-66,-15,-5
-1,0,-6,-11,-16,97,20,4
-1,3,2,-10,20,15,-5,-3
-4,0,-4,-6,-12,-42,-7,-3
0,-1,-3,-16,-23,-14,0,2
0,-3,-5,-19,-35,-8,-5,3
-2,2,3,0,40,-17,-3,4
-7,1,18,127,29,-17,-15,-12
-2,-13,-21,-93,18,-17,-6,-6
31,-5,-16,-15,-7,31,-1,-1
0,10,3,-13,-7,4,9,22
-19,-12,-5,10,-8,-3,-12,-22
-78,1,0,5,-17,-56,-1,-1
-46,-4,-6,28,59,72,8,-19
-87,-1,9,5,-15,-2,3,8
43,10,4,-9,19,16,-5,1
16,-15,-18,-41,-63,42,21,9
16,4,6,22,-34,-13,-7,6
10,5,6,9,68,1,-1,7
-7,-19,-14,-13,-47,-42,-13,-11
86,-3,-19,-26,-8,25,4,10
-128,31,22,20,67,16,-1,-13
50,-6,4,2,-20,12,2,1
15,-4,-11,-28,-17,-11,-4,-1
7,-5,-3,10,1,-26,-3,-3
0,-2,-1,28,29,-47,-6,1
0,1,8,-23,-13,97,9,0
1,2,-5,-21,-10,-17,3,5
-9,0,-4,4,-15,-4,-9,-9
-9,0,-4,10,0,3,0,-13
-9,-2,1,2,-8,-27,-8,-2
-6,-2,3,13,53,-15,-7,-4
24,6,10,19,-32,-4,-2,4
-21,0,-7,-13,7,91,28,7
-26,4,10,-1,44,0,-4,4
-65,-18,-19,2,-20,-16,-3,-19
-9,-11,1,32,-35,-56,3,0
-14,-5,1,11,19,-90,-13,-15
107,1,10,-47,54,107,8,27
86,25,-1,-6,-54,26,-11,-22
-128,-22,0,-20,40,-16,6,5
90,5,2,-6,-28,-26,-6,8
-128,-27,-14,-4,-4,-59,-15,-26
27,2,11,11,40,-34,-6,1
35,6,-21,-8,-28,-53,-8,1
-5,-6,-9,-16,-77,83,22,9
6,-13,-1,6,-1,6,3,7
8,13,10,19,40,-4,2,22
-26,9,-3,-28,0,-28,-11,-11
-8,4,-5,14,-13,8,3,-33
-30,-2,7,-28,34,8,0,-4
20,-1,3,27,-11,-18,0,21
0,-3,0,-42,-8,4,-8,4
-3,-4,-5,28,6,17,0,-1
-7,-1,3,2,3,-73,-13,-6
-2,1,5,50,53,127,5,-4
-3,-4,-3,-26,-59,-21,-2,-3
-1,3,1,-59,-59,-26,-9,-2
-10,-5,-4,-17,0,-70,0,-3
7,-2,3,9,49,12,0,-2
4,6,-5,-2,11,14,1,4
21,-4,-2,8,-12,-10,1,9
12,3,3,3,-27,-10,-12,-3
-55,0,1,0,-8,13,2,-21
-76,-13,-6,-12,-6,-5,-4,-11
12,6,12,5,0,-41,-11,1
-45,-1,-11,-53,8,-21,-10,-3
-18,-5,8,82,-11,-26,-6,-34
108,5,3,2,-10,73,40,51
33,12,14,30,-81,63,12,4
-21,-3,-19,-72,23,-28,-22,-16
-29,-2,0,-13,-1,-10,-8,-21
-19,-5,3,23,2,-23,-4,19
-40,-3,-13,-6,22,-15,1,-10
13,-1,-9,-1,-17,-44,-23,-35
10,7,4,-1,-66,3,10,0
1,1,0,-18,-16,-15,2,7
18,0,-8,-44,36,17,4,12
10,-3,-3,0,5,-11,-4,-2
0,-6,-2,-13,11,-2,-2,-2
0,-2,-2,10,7,-3,-2,0
5,6,3,-21,-50,-27,5,4
0,8,14,10,47,24,-1,1
-8,-6,-10,-17,-3,17,-1,-3
-1,-1,-6,31,3,10,-7,-2
-6,-3,-2,-2,-35,-11,-7,-7
-1,-2,8,8,-71,-6,0,0
-2,-5,-9,-31,28,1,-4,1
0,0,-4,15,35,65,11,4
-3,1,0,16,22,-8,-7,-2
-1,-2,6,8,11,-3,-2,-5
-1,1,1,-6,-12,-5,-2,-1
-4,-3,-6,-2,9,-2,-4,2
-10,-1,0,0,-26,-22,-4,-20
46,5,1,23,17,-61,-14,-1
80,3,0,19,41,24,10,20
11,-2,-7,-42,-30,89,18,6
-107,-8,-6,-50,-30,23,3,-1
127,40,37,97,47,-34,-13,-6
-128,-33,-22,-7,45,0,-17,-29
-15,-27,-24,-22,-98,-47,-13,-49
85,-9,-5,-29,-14,22,-3,2
80,6,2,2,9,-9,4,25
4,2,2,-4,15,-53,-8,15
-13,3,-2,-3,13,-79,-21,-23
-16,-11,-18,-3,32,127,26,-11
-41,-1,0,-10,-80,-3,-2,5
-18,-5,7,17,25,9,-6,-1
-9,1,2,0,-8,-18,-5,6
-16,1,-2,38,11,-14,1,-2
-11,-1,4,-13,-8,-20,-10,-7
-6,0,6,-4,32,-22,-11,-3
-7,1,7,-11,-24,-20,0,5
-12,-8,-5,13,3,7,-7,-4
-7,3,1,-8,-19,1,5,-5
11,8,-2,4,10,14,-5,2
-48,-7,0,-6,-15,-35,-13,-6
4,3,15,24,15,30,8,4
-8,-9,-12,-62,16,5,2,-8
-6,-12,-5,-13,-13,49,10,2
-15,-11,-5,-19,28,-20,-1,6
37,29,12,16,-27,3,-3,24
20,20,8,5,-29,27,1,-21
39,-8,-12,15,36,-9,-21,-25
-11,-8,-15,-6,5,-11,-10,-2
-27,-16,-11,10,-31,-12,-4,-1
-88,-13,-4,-4,3,-5,0,-20
15,2,2,6,4,2,5,5
18,2,11,2,3,2,5,11
12,-2,-4,6,-10,-22,2,5
8,1,-10,-45,12,-62,-12,5
-2,-4,17,69,54,83,2,-1
93,3,-2,0,11,125,41,21
-128,1,13,-19,-77,-38,-4,-11
41,6,-16,-33,7,-23,-14,-13
-105,-12,-15,-15,4,12,2,-15
45,5,12,23,-5,-20,-2,21
56,-6,-7,-19,101,-11,-11,-2
-111,-5,2,-33,-27,-10,-7,-36
78,-5,13,15,-32,0,-2,8
9,8,-17,-11,7,5,1,0
-52,-5,-3,-35,-10,-11,-5,-23
20,-1,4,-24,1,-2,1,7
12,5,7,50,-14,-3,-5,1
1,7,-2,13,3,-9,6,3
2,-4,0,-5,-10,-27,-7,-4
10,2,4,37,23,-6,-8,-1
13,-5,-7,-49,-42,-1,0,5
-24,-1,0,18,-15,27,9,-9
0,-1,-5,-41,29,-6,-4,1
1,0,3,7,-13,29,6,4
0,2,-3,3,-17,-28,-8,-2
-2,0,0,-9,1,-15,-8,-4
21,3,-1,24,9,-26,-10,-4
-66,-6,-12,-18,10,19,-2,-6
-13,-5,9,-13,-9,89,16,1
26,3,-3,-38,-25,-16,-2,4
-17,-7,-23,16,2,-50,-6,-1
74,9,10,4,78,43,1,-3
-80,-3,-1,4,-26,-6,-5,-16
-41,1,3,-6,-33,-26,-6,-6
18,2,6,3,-15,-12,-5,3
18,-2,-3,20,-4,-39,-6,4
77,8,-8,-15,28,-62,-16,23
-124,-7,-6,8,10,114,19,5
47,-3,7,24,-75,-12,8,-22
-23,-7,3,-57,-33,-19,-10,-36
12,-6,1,-10,12,-16,-4,6
52,14,-6,5,11,-2,0,28
10,9,-3,-6,-6,-13,-4,8
-19,-2,20,64,34,-21,-2,-7
7,-5,-10,-61,5,9,-6,-11
-28,-13,-8,27,-65,-21,-3,-7
-4,-4,-3,7,36,-37,-2,5
13,-1,-4,-18,3,10,-2,-1
5,2,-8,-31,54,0,0,0
-70,-4,-3,-25,-117,59,3,-3
3,2,6,-2,1,-44,-6,0
7,-1,2,-13,-8,3,-2,1
26,11,10,7,-10,-17,2,8
27,-3,-6,-8,-7,-11,-3,-1
-28,-1,8,23,13,-11,-3,-2
1,-6,-5,-34,17,-5,-5,-3
1,-6,-19,-24,-18,-24,-2,-4
4,1,0,-27,12,-4,0,-1
4,2,5,40,7,7,-6,1
3,-1,-4,-1,9,61,31,9
-16,-8,3,37,15,-25,-11,-9
33,2,0,-2,-16,-103,-13,2
-3,1,-4,-23,10,108,6,12
-15,-10,-14,30,-24,-11,-5,-19
60,12,5,25,-2,-10,2,7
20,4,-12,-22,-11,-20,-5,10
-98,-31,-17,5,33,-29,-5,-58
-19,8,10,9,17,38,6,15
-23,-8,-6,-9,-22,-34,-4,11
-12,-9,-1,2,-1,24,-1,-21
21,-8,4,18,-44,-1,-9,-5
4,4,-4,10,9,1,-1,-1
15,10,-5,-14,-28,-9,12,11
45,17,9,-11,-9,1,-5,15
-22,1,2,-17,0,-16,2,-2
-60,-17,-4,33,10,7,-10,-11
17,1,1,-11,34,3,3,-16
-33,-7,-6,0,-31,17,3,6
48,-5,2,7,-7,-3,-2,18
-26,1,0,-12,2,-25,-3,-8
-27,-3,0,-9,14,21,9,-15
7,0,-11,-32,1,-14,-8,4
6,0,4,29,-38,-8,-1,4
26,8,-2,49,47,42,18,12
24,2,7,-25,6,-28,-9,0
-35,-8,-3,31,34,15,2,1
35,3,13,46,21,-67,-9,7
-31,-1,-7,-26,-9,63,9,-4
46,6,-5,-24,-68,16,-3,-21
-128,-12,13,11,-40,-11,0,18
22,-5,-12,-55,52,0,-4,6
12,4,5,33,6,-25,-6,0
-4,-22,-20,-88,-3,-83,-13,-10
117,28,21,47,-16,11,25,57
80,19,-9,-12,-30,99,15,-1
-128,-8,-13,-31,5,1,-19,-73
66,-17,-15,-1,7,-21,-17,-25
32,-4,10,61,20,6,3,1
27,-6,-14,-48,-31,-13,0,11
9,-2,-4,-25,-21,-33,0,15
-17,-4,-10,5,36,32,6,9
11,5,5,-2,30,18,1,8
-20,-1,6,13,-39,-11,-9,-18
-21,-2,1,-27,-22,-39,-4,-3
-14,-2,-11,6,31,-11,1,1
-18,-14,-19,-42,-6,10,1,4
-4,8,-10,-19,-10,58,13,-6
-11,-2,24,44,-12,-7,2,-1
-10,-8,-1,-5,42,-12,-7,-7
-8,-6,-9,-14,-51,-31,-8,-5
-5,-4,-6,15,7,21,1,-4
23,-2,-4,-1,-33,-53,-3,-1
-17,-4,0,25,36,34,-6,-2
-40,3,1,-68,16,-57,-8,-8
89,11,6,-7,-51,109,14,11
16,5,6,39,-42,-82,-9,-2
-83,-21,-10,-17,63,29,16,6
-67,-9,-2,-8,-42,5,10,17
-15,-6,-11,-10,-18,-30,-14,-36
81,17,7,-23,27,-15,-4,1
-128,-9,10,40,42,-22,-6,-3
31,11,3,35,-55,38,3,-6
21,-3,-2,-20,-6,-12,8,5
7,-6,-1,34,50,-1,0,0
-5,-1,7,24,-53,-4,-4,0
23,-7,-19,-21,39,-33,-12,13
-13,16,-1,2,-31,37,10,11
3,1,-1,-13,-22,-37,-13,-32
-2,-4,0,-6,30,25,-3,-7
-4,-9,8,23,22,-46,-9,1
-4,-5,-8,-64,-30,43,8,3
-3,5,9,53,-38,6,3,2
27,-1,-21,-14,18,2,2,3
-55,-12,-3,17,15,11,-7,-3
-29,-5,6,-15,1,-16,-5,-4
1,0,-1,-5,-11,-14,-1,-7
5,1,5,16,6,-19,-5,-8
14,-4,-4,28,-8,-1,-10,3
-8,-12,-8,-24,19,58,20,-3
14,7,18,-6,-32,-17,-4,-5
-4,20,-6,-4,6,-12,-2,1
3,-1,-8,13,20,20,-2,-2
-9,-19,-16,-17,-12,-20,-10,-8
18,-2,1,-67,2,-1,-5,7
-54,-11,-7,33,14,-36,-5,-13
111,11,9,38,-31,0,6,0
-34,12,8,-28,22,27,19,24
5,-4,13,5,37,-26,5,12
18,-11,-9,-23,-39,35,-42,-81
46,-2,-20,-29,-52,31,16,-4
36,12,0,-17,-4,-17,-3,28
44,2,-2,38,45,-18,-8,1
-5,0,11,-14,-44,-17,1,8
-9,-4,1,8,30,-9,2,5
29,-2,12,30,35,-9,2,28
10,-4,-10,-6,0,13,7,3
-15,5,-4,-40,31,-1,-8,-28
-50,-16,-6,24,-44,9,9,-13
3,2,10,5,-14,18,-1,-4
3,3,2,9,21,20,0,4
3,0,-14,-46,-11,-12,-6,2
12,-1,0,1,-6,-6,-2,3
-32,-7,-1,-1,13,-8,-4,-1
-2,2,-4,3,-37,-28,-7,0
0,-6,-1,10,12,-44,-15,-3
11,-13,-18,-31,-18,43,5,-3
3,-4,4,38,75,85,14,2
14,16,8,-41,-88,19,10,2
-106,-13,-2,19,49,-44,-11,8
26,-3,10,44,-60,-11,-13,-9
-55,-13,-15,-14,25,-2,6,-10
5,-6,-13,-32,-15,-16,-13,-1
6,-5,1,-15,-13,-16,-14,-10
10,2,11,19,-2,-11,-1,-3
4,1,3,2,7,-3,3,-8
-7,-3,-5,-11,14,-10,2,3
22,0,-10,31,26,6,10,20
-14,-5,-2,34,-57,-20,5,2
18,-6,2,-13,-25,11,-2,-5
-64,-8,-4,-4,43,13,-9,-24
2,14,1,-7,-19,-2,-13,-26
-20,-5,0,-2,13,36,12,-2
4,0,0,-10,-2,8,12,4
5,-4,1,-10,8,-29,-8,6
42,1,2,7,-12,-15,1,18
-40,-5,1,-36,-53,-45,-8,-2
-44,-9,-13,50,-17,-28,-16,-5
0,-16,-20,27,75,85,15,-6
13,7,15,26,-17,119,25,10
6,13,12,-53,-28,-14,-5,0
0,-4,-10,0,-24,-27,-11,-6
-10,-11,-19,-27,-9,-13,-2,-7
-1,1,2,14,26,-22,-8,-1
83,12,2,-2,-4,-44,-2,21
-12,2,4,-15,-23,47,2,-10
-128,-21,10,12,-5,-36,-2,-14
28,1,-7,21,33,28,7,8
19,2,1,-34,14,25,2,5
-20,-6,-6,-35,-36,-16,-8,-23
52,4,2,52,-21,-25,-2,20
51,8,-8,-22,-1,8,1,9
-99,-16,1,6,31,-41,-7,-41
-4,-5,8,-11,-13,21,-1,-4
8,-1,-4,24,13,44,7,5
31,15,15,-1,24,-33,-1,1
11,6,-10,-15,-9,17,-8,2
21,-6,-1,14,22,-31,-6,-2
0,-2,-4,20,-20,-17,-4,-5
-5,-9,-13,-29,4,-4,-5,-2
-1,-2,0,5,4,-8,-1,-4
-4,0,2,-1,9,-9,2,2
-6,1,1,7,-23,-10,-5,2
-5,-7,-7,-12,27,15,0,0
-3,-4,1,-18,-32,-39,-4,1
4,16,12,93,77,95,4,2
-5,-1,-7,-66,-26,36,15,-4
15,3,12,34,-53,-19,-6,1
-47,-10,-14,-22,-25,9,3,7
8,2,-8,-34,14,-14,-14,-25
3,-5,11,49,37,-6,-4,1
-44,-4,-10,-42,13,-11,0,-12
23,2,-3,-18,-16,-9,-6,3
51,4,7,-15,-14,-4,1,27
39,8,-3,3,4,-1,0,1
-83,-16,4,15,16,-9,-5,-41
-128,-5,-12,-69,-8,5,-1,-22
-12,-3,6,-4,-11,10,-1,-1
26,-7,-10,-20,19,-9,-1,-5
30,5,-18,3,7,5,2,6
-18,-2,7,9,17,-21,-10,-10
5,9,4,20,15,24,-2,1
11,3,-8,-23,-21,30,8,-6
-11,-8,1,-10,-23,-10,1,1
-1,3,9,27,23,-7,-2,1
-10,-6,-5,-30,15,-11,-3,0
-3,-5,-13,-16,12,-3,4,5
0,-9,-9,43,33,-37,-10,0
18,6,-3,-18,-50,19,10,-2
22,14,14,-7,-50,-5,-6,-10
-33,-5,-17,3,-21,2,-2,2
4,2,-19,14,87,-2,-4,-2
25,4,-1,-57,-49,-49,-10,11
-103,-17,-3,1,-33,-26,-7,-25
-29,-11,10,2,39,104,21,-27
39,6,4,-29,36,45,6,16
34,2,-5,2,17,-30,-4,15
-2,-6,18,6,-46,-45,-7,-7
24,4,-5,4,7,-5,-5,2
39,1,-26,-35,1,-21,-6,-7
-128,-9,6,20,9,25,9,29
-26,-7,-2,-1,-8,-21,-8,-25
22,-6,-18,-23,-12,-20,-8,4
-14,4,17,2,9,30,8,-6
14,0,1,-22,-26,-44,-5,-1
-2,3,-4,8,16,49,1,-8
2,3,2,0,47,-44,-4,-1
4,-8,-3,-1,-57,-19,-13,-1
46,4,0,3,-10,0,8,8
-128,-12,5,-6,-4,16,17,-4
-11,-1,-5,33,18,-38,-23,-27
6,13,-6,-53,-38,36,-1,-5
8,-4,-10,-29,-22,-26,-4,3
28,-1,3,33,45,-7,-2,13
-8,9,1,24,42,25,6,6
-107,-23,-5,-21,-13,-6,-1,-13
-12,-20,-19,28,-16,11,-5,-34
34,7,7,9,24,-6,-5,2
18,4,11,-4,-29,-4,3,7
11,9,5,9,-3,-18,-4,2
7,1,-1,-16,-14,-5,0,3
-2,-3,-16,-7,-5,-5,-1,1
-4,-5,-7,-2,4,7,1,2
-8,-3,-2,-8,13,-1,-9,-5
-6,-3,8,36,50,-39,-9,-1
14,1,-4,-22,-1,66,20,12
58,-2,-9,-18,-113,55,20,8
-128,-15,-17,-45,43,-9,-13,-15
108,11,3,-10,62,-12,-17,1
-104,-11,-6,-20,-41,-18,-8,-4
3,-3,-1,-21,-23,-52,-10,-14
-33,-8,-13,-22,22,-4,-5,-9
20,-6,1,-2,36,-8,-1,-4
16,-1,11,16,-55,-26,-6,7
9,0,-17,38,14,33,8,6
-2,-1,0,8,-21,-32,-4,2
3,3,-1,-16,20,-19,-7,5
4,-9,-6,6,3,71,14,15
-34,-7,-7,9,18,27,13,-22
6,19,10,-10,-17,5,-8,-2
58,8,3,-44,13,-40,-10,15
-46,-16,-11,-21,-27,26,-2,-8
-26,1,-6,-4,39,-19,-12,-50
-13,5,-15,-18,-26,-16,-7,2
-4,-1,7,28,-4,-25,-13,-9
-70,-18,-6,-12,-44,0,18,6
57,4,-1,-18,49,77,10,12
31,3,8,57,12,4,5,8
-53,-2,1,-15,-20,14,1,-10
6,-3,-7,-52,-11,-18,-4,-1
7,-2,4,-10,-55,-10,1,2
5,-5,-20,-17,97,2,0,0
3,-1,6,31,-16,-25,-6,6
-7,-4,-5,-2,2,-57,-7,-11
2,6,13,2,-3,15,-3,-4
1,-5,-1,11,-32,64,19,4
-5,-7,2,-5,16,-12,-1,-2
-6,-2,-12,35,32,50,-9,-8
2,6,-9,-45,-46,-25,18,5
15,4,-11,-11,-20,-9,-2,3
-4,0,-7,-12,15,-15,-4,5
8,-6,1,-19,10,-31,-6,14
9,-1,-7,16,-31,29,7,3
-128,-15,9,-6,2,-4,-11,-66
24,0,8,5,12,-53,0,4
7,6,2,12,-2,50,10,14
-9,-13,5,-1,7,11,-17,-16
2,-12,-21,-6,-20,-4,-2,-10
16,2,-4,9,53,-16,0,11
21,12,6,-25,-10,-29,-6,5
-7,-8,2,9,-17,-63,-16,-6
25,6,-2,-28,10,127,41,17
-56,3,2,33,-9,5,-5,-7
-6,2,3,-10,6,-11,-10,-9
-10,-7,-18,-31,-14,-15,-3,-2
-7,-4,6,8,-6,-12,-5,-2
-4,-3,-3,-14,9,-37,-6,-4
-2,-4,-11,12,32,55,4,2
2,-7,-14,-43,-14,34,16,5
3,3,7,-37,-20,-20,-1,7
73,4,0,25,-40,-99,-16,13
41,-4,-11,-12,80,27,-5,-6
-128,-17,12,17,-11,75,26,5
-25,8,3,-1,-24,27,5,-15
-27,-6,-22,-64,-34,-26,-26,-18
-32,-20,-8,4,-8,-44,-16,-20
23,-3,-7,-9,-9,38,5,7
17,-4,-5,5,31,-12,-3,6
13,-1,9,5,-30,-6,3,11
2,0,-3,-7,5,-12,-3,4
0,-1,-8,-26,-1,-27,-7,-1
-3,-2,5,37,0,10,-2,-1
-5,1,13,17,53,28,10,-5
-17,1,-8,12,-20,27,9,15
-8,-4,-4,-1,-34,-25,-3,-2
2,3,5,-14,8,-8,-5,-8
0,3,4,30,-1,5,-1,0
-5,-1,-2,-22,15,-8,-11,-4
4,-1,-6,-45,-25,-40,-5,-5
-4,-5,-4,15,17,-19,-16,-1
-14,-4,0,29,24,74,23,4
81,15,3,4,-15,120,20,27
-128,-19,4,7,-34,12,11,-19
12,1,12,22,28,-3,-4,-9
80,-11,-11,-26,-44,-43,-19,-9
29,35,16,-25,15,-5,7,-2
-63,-4,4,62,2,-13,-12,-11
24,-10,-15,14,11,-34,-13,-8
-30,-7,4,-8,31,31,1,7
15,-3,-8,12,-24,5,2,8
7,-1,0,-19,-22,-13,-3,5
6,5,5,20,12,-1,-6,2
-7,-6,-8,-4,7,1,3,0
-4,-4,-4,-34,-24,57,14,3
-1,1,4,19,19,-20,-1,2
-5,-3,5,23,11,5,-2,-6
-4,-2,-4,4,5,-10,-5,0
-18,-8,-7,20,9,-7,-5,-10
14,6,-7,-17,-24,-68,-17,1
-7,4,5,-8,-37,91,10,-10
-3,-4,27,38,-2,-20,-7,3
4,-5,-25,-7,-12,-4,-1,2
-46,-1,-8,-2,-13,-15,-2,-14
31,1,8,18,102,-40,-6,0
39,-5,5,26,-38,-1,-5,-3
-16,1,-5,-66,-48,7,-3,10
-63,-8,4,25,64,-10,-8,-27
-9,-9,-19,-5,-74,-6,2,-10
-13,-7,-28,-25,-1,-10,-5,4
42,-6,13,45,38,32,4,1
28,-4,-4,-42,-20,-15,1,8
10,7,13,26,26,8,0,-4
16,13,9,59,20,-8,-4,2
-7,-5,-9,-87,-47,-26,-3,-2
-15,-10,-22,-14,20,6,3,-14
26,1,-5,0,-33,0,5,14
1,-4,-12,6,0,-35,-6,10
14,2,2,0,36,56,2,-25
38,8,1,-28,19,-17,-5,-6
-81,-8,5,49,-2,-4,-1,-8
-1,1,-4,-9,-32,-21,-5,1
2,1,-3,0,6,-31,-4,3
6,2,4,-27,-35,-3,-4,0
4,3,5,14,71,15,-1,2
24,-3,9,34,-45,15,7,4
18,0,4,-3,2,-26,-1,-2
43,12,3,14,-43,1,-2,17
-78,-12,-18,1,14,-13,-5,-10
32,-6,3,-1,28,-14,-8,-22
11,1,14,7,6,3,-5,3
25,-5,-3,5,4,-6,-1,1
-19,0,-7,-13,-1,-3,-3,-13
13,3,13,-4,-12,0,1,-1
1,0,1,-11,-13,-34,-8,7
11,-4,-9,8,47,-22,-2,0
8,-7,-5,-15,-22,-14,9,11
-16,-6,3,2,-13,-40,-21,-2
31,20,-7,-26,-53,125,19,-11
84,5,-4,-5,9,-40,-7,5
-128,-31,-11,-24,5,-47,-17,-32
46,-7,-8,17,1,-27,-5,4
52,2,1,-23,1,-23,-4,23
-117,-17,-1,19,8,-7,1,-45
5,-3,2,-32,-8,-4,-4,-14
19,1,2,12,-11,-2,0,9
20,7,-3,35,5,9,6,12
-15,-5,5,2,26,10,-3,-1
0,0,-3,0,-15,5,-1,3
-4,2,-5,-16,-16,-12,-1,3
-5,-2,-2,-9,23,6,2,4
-9,2,4,33,-6,0,-1,-1
-5,-2,1,-6,-24,3,1,2
-9,-1,-8,-19,-13,-9,-3,-3
-5,-10,-7,-11,-10,-51,-11,-7
3,10,15,-4,21,63,2,1
18,4,-2,37,-16,32,13,-4
-61,-4,-7,-14,-16,-27,-2,5
0,-10,-2,7,1,17,-6,3
19,1,-9,-40,-15,16,-3,13
7,12,5,-10,1,-50,-7,-10
-7,-8,-3,7,-7,14,0,-10
2,-1,5,6,33,4,3,0
3,-4,-8,-19,-2,-6,-2,3
-2,-1,2,11,5,-9,-3,-3
-11,-1,7,4,-7,-2,6,4
14,6,3,-10,1,-31,4,20
51,7,-8,8,27,-13,-6,-4
-12,-2,13,17,-43,56,7,-3
-27,-19,-4,-26,12,3,-10,-14
-27,-3,-14,0,2,3,-3,2
9,9,-4,10,-11,-28,-1,-13
7,0,1,10,-9,-69,-7,2
19,-11,-17,-38,-19,57,2,2
58,-4,3,11,-14,40,2,15
-44,10,13,13,24,-7,-2,-15
16,-8,-2,4,19,-20,-5,-10
14,4,-2,4,35,69,14,6
7,-1,-1,23,1,-6,2,7
2,-5,-4,-30,-18,-13,-4,-2
-8,-7,-3,-4,1,-15,-9,-3
3,2,-5,-13,-48,-14,-6,2
4,4,2,-26,-26,-15,-3,-5
-6,-7,8,44,15,25,3,-4
-9,-1,-25,-21,-1,23,1,-5
24,3,-13,-21,-15,-21,-6,7
22,-2,-8,-5,8,-38,-10,-3
-52,-5,3,-26,3,-9,-3,-13
-24,-10,-7,42,20,-36,-9,-10
5,-1,-5,-21,-42,23,0,-1
18,-5,0,24,51,3,0,1
5,-1,0,-24,-14,-19,-2,-1
-3,-6,-1,14,-17,-16,-5,-3
5,-1,5,5,2,-36,-1,9
13,3,0,6,-33,15,11,25
16,7,20,11,24,2,0,-4
6,8,4,6,-19,10,-16,-30
86,0,-8,-19,55,-43,-15,8
-97,-2,1,18,68,40,5,-12
-2,2,-5,3,-93,-16,3,24
61,4,7,5,10,31,1,-9
-60,-11,5,7,11,11,8,1
-39,-21,-31,-43,-2,-38,-6,1
-18,-1,17,1,-64,-7,0,-5
16,14,-7,-29,4,10,4,4
2,7,1,14,48,60,1,-9
5,2,0,-6,8,-12,-9,3
-9,-1,7,36,-20,-61,-15,-8
-4,-2,12,1,44,-7,0,4
2,-4,1,17,-36,67,19,8
3,-4,-6,-52,-10,7,-8,0
-35,-6,-10,-15,-12,28,11,2
-14,-4,0,-2,-3,-12,-2,-5
1,2,5,24,3,-30,-9,-11
2,-7,-7,-29,-2,-13,-8,-3
4,-1,4,12,21,27,6,7
-8,-1,-6,7,-32,-23,5,9
-9,0,-7,24,-30,-19,0,1
30,-4,-13,-61,0,-13,-15,-4
0,-1,3,33,-11,-27,-9,-8
86,10,1,-8,4,9,4,17
54,10,5,-13,36,29,8,21
-128,-14,7,11,-18,-22,2,-28
-22,3,4,9,-15,-11,5,-1
24,-7,-23,-4,12,23,0,2
15,-4,-15,-5,12,7,-13,-2
11,2,0,1,9,20,1,-12
68,-2,5,13,5,-3,6,19
27,10,8,-12,-54,-25,-2,4
-128,-11,6,-18,50,-9,-13,-26
5,2,-24,16,-22,98,36,2
10,2,1,-13,-15,-22,-13,-4
38,-5,9,28,-26,-16,-8,2
-11,2,8,-6,16,-7,-4,1
2,-6,-14,21,2,-11,-2,-2
12,2,-12,3,29,-21,-2,9
3,0,0,-17,23,48,5,-1
-4,2,-8,-13,-11,-1,-4,1
-1,0,11,-4,-25,-32,-6,1
9,-1,1,59,26,3,-3,5
-15,-4,11,-22,-60,51,17,-8
13,-10,-10,-36,10,-27,-2,1
-1,7,-10,2,12,30,-6,-14
-26,0,-3,12,15,-8,1,-10
-13,-2,0,-14,8,-15,-2,11
-50,-7,7,48,68,-40,-10,10
16,-4,-13,-68,-47,20,1,-11
41,-5,0,31,-42,-16,-1,-18
-1,0,-6,-63,-53,-14,-5,15
31,7,18,43,34,14,8,-24
-93,-20,0,38,26,-11,-6,5
-27,-9,-6,-17,-8,-4,-10,-19
21,0,-7,-37,38,3,-4,2
13,12,-1,2,31,45,4,3
6,-6,-10,2,7,-14,-2,4
4,-1,-6,-12,-12,-16,-2,4
1,-2,1,1,-56,-17,-5,1
3,2,8,1,-21,-20,-6,-1
-1,-10,-13,-10,37,-11,-7,-4
-2,-4,0,-11,-23,-44,-5,-3
-18,-11,1,20,29,69,21,-4
0,4,1,18,3,47,7,-2
-6,-1,-13,11,3,-11,-8,-3
0,-1,-3,-70,16,14,3,1
0,-4,-16,2,0,3,2,4
7,5,12,-19,-88,-19,-3,-3
57,5,-6,4,39,-26,-1,16
-85,-13,-7,-10,52,23,8,12
-75,0,2,15,0,-11,0,-22
-6,-2,6,9,2,10,-22,-34
14,-3,-5,-28,-48,57,8,-2
32,-11,-5,-11,1,-12,-2,-5
-30,1,8,26,4,-9,4,5
42,-1,-8,-22,-15,-7,-8,9
41,-2,-9,7,16,-24,2,23
-10,-4,-21,-10,16,48,5,-14
7,1,4,13,-36,-10,-3,-6
3,0,0,17,18,-10,-4,2
9,-6,5,-15,-5,-25,-8,0
-3,-3,-8,-6,-3,19,2,-1
3,-4,5,4,70,-1,-4,2
-12,0,-1,16,-37,-59,2,-10
8,10,-4,20,-36,34,5,9
15,-4,-29,-50,-20,23,-2,0
-23,-3,4,5,-3,2,-1,-12
0,-9,-1,48,19,-26,-5,-15
67,1,0,18,-8,-25,-2,26
-80,-12,-4,17,16,2,-4,-21
6,-6,3,7,-2,-4,-1,-15
2,8,4,2,3,-17,0,-1
14,-4,-5,-32,7,-66,-23,0
-63,-9,3,33,-5,79,4,-11
24,1,-13,-27,-72,-25,9,13
28,7,5,-9,31,-25,-3,-4
50,0,-2,-8,-14,41,4,8
-62,-3,4,11,-13,-10,-6,-4
-66,-3,-1,1,16,28,-5,-20
7,1,-2,9,12,-14,1,1
-9,-4,-2,-10,5,3,-2,6
9,-2,8,1,-50,-9,-4,1
10,-2,-1,-6,5,-3,-1,-6
-6,-9,-13,0,62,27,5,0
-2,6,4,-10,-35,1,7,7
20,9,21,-7,9,6,2,13
-21,-20,-28,65,26,-1,0,-10
16,-7,-8,-8,-9,-10,-13,2
12,26,4,5,-52,-17,-1,-5
-20,-7,2,-25,19,-30,-12,-16
10,-4,7,25,5,33,1,3
39,2,0,16,3,-4,1,11
-77,-13,-1,-9,-38,-57,-1,-3
-21,1,9,32,33,47,12,-4
127,10,-6,-12,13,-25,4,47
-63,8,12,-8,-10,40,5,-10
50,-14,-2,-12,-2,-25,-18,-26
24,-4,-7,-12,-15,-30,-12,-22
12,-2,3,3,23,7,-4,4
2,-8,-3,-15,-76,-38,0,3
18,2,5,46,46,-3,-4,-3
13,1,-16,-37,19,-23,-7,6
-33,-4,3,25,22,70,22,-13
27,4,4,-17,-47,-12,-1,15
-34,4,4,8,25,-8,0,-1
31,-17,-6,14,26,7,1,-4
-21,0,-5,4,8,-22,-12,-2
-49,1,-3,-34,-23,-36,-22,-29
25,4,-2,18,3,82,20,8
8,-8,0,-1,-22,10,6,5
-5,-12,-6,-9,-14,-37,-8,0
2,11,0,-6,-13,-6,-5,-5
5,2,-8,9,14,-5,-1,2
-5,-3,-2,-8,-7,-5,3,1
0,0,5,18,14,6,6,2
15,-1,-2,27,9,0,-8,1
66,2,8,2,55,-74,-14,8
-82,-5,4,16,-15,99,28,2
-94,-10,-4,34,65,110,-3,-26
19,1,-4,-27,-80,18,11,9
26,-6,-11,-58,-28,-44,-12,5
55,6,-2,-12,-27,-25,-15,25
-38,-8,-8,3,43,5,-12,-32
-59,-8,2,10,19,-8,2,-27
-49,1,3,-8,20,-16,-2,-10
-28,-6,2,11,-10,-2,6,18
24,1,2,11,6,-3,3,9
-13,4,6,-5,44,-32,-2,-14
-2,-7,-8,14,-18,78,3,0
20,-4,-7,-20,-61,1,-8,3
11,0,-5,0,-6,-8,-3,7
1,1,5,16,21,-3,-2,1
-7,-10,-4,-21,-21,-9,2,-4
-2,8,-3,-8,50,-41,-5,-5
24,10,-2,-13,-46,43,-2,-6
-11,5,9,8,-14,-5,3,10
5,-10,2,-5,14,-12,-4,11
-17,-10,-10,-62,23,-6,-2,-13
-59,-10,4,88,-39,-22,2,-13
14,0,10,16,29,-53,-13,-5
-24,3,-10,-21,-19,69,3,1
5,7,-4,-14,-22,0,3,5
5,-4,-8,-8,1,5,1,3
6,-1,0,0,15,8,4,7
19,4,13,25,22,4,6,9
-27,-9,-19,-3,-15,-54,-12,-12
17,-3,1,15,-1,-13,1,-11
97,6,3,-22,17,67,1,-3
-128,-8,7,0,-56,-7,-5,-16
14,-2,-25,-70,94,12,7,31
-21,-2,5,62,-97,7,12,-13
-39,-13,-9,1,4,-31,-22,-26
6,-5,-2,-66,14,-24,-8,-6
23,-1,-4,23,49,26,0,7
44,1,0,2,-19,23,10,7
62,0,-3,-11,4,-42,-3,17
-128,-23,-9,-11,-25,70,11,-2
10,12,15,-10,-11,-9,-18,-38
3,2,4,-11,-2,-13,-7,-10
4,-5,-5,-50,-16,-19,0,6
2,-1,8,-10,20,2,0,3
2,2,2,7,-1,27,5,3
-1,0,-2,18,10,-3,-4,-4
-5,-3,-10,-13,-6,-8,-3,-1
-6,-5,10,2,4,-9,-7,-6
-5,-1,-5,1,-30,-42,-8,-7
16,0,-1,1,-8,-6,-10,11
-6,3,4,8,30,69,29,2
-11,-1,-11,-29,28,10,6,-4
-2,10,13,23,-33,-46,-8,-2
10,-2,-4,37,-5,-6,-8,2
-43,-9,-24,-37,-15,-21,-9,-9
18,-8,-3,17,45,-18,-10,-8
-12,-1,6,-24,-66,24,7,-6
-7,0,9,-2,-19,-8,-6,-7
16,-6,-11,-28,8,4,2,0
11,1,-13,18,20,2,2,7
6,-8,0,49,33,-36,1,6
-5,4,-8,-49,-11,47,9,4
1,-7,-5,11,10,-7,5,7
60,1,-8,1,-53,-11,-9,-21
-66,12,11,-21,4,-28,-11,-11
-17,-15,-2,-5,18,43,1,30
14,-3,-13,5,-10,7,2,13
-68,-11,14,27,35,-22,-1,-30
-49,-11,-22,-22,13,-26,-16,-56
6,-7,-10,-26,-10,42,0,-7
46,-3,-8,-41,63,-28,3,3
8,5,7,94,-104,34,22,28
17,2,2,7,-41,31,-3,-1
6,-7,-15,-53,44,-10,-6,-5
0,-3,2,19,22,-12,-12,-1
1,-2,3,-4,-3,-14,-2,-1
-1,0,-2,-19,0,-16,1,2
-1,-3,-9,4,2,-22,-8,-6
-3,-4,5,-4,8,40,4,1
-5,-3,-18,-1,24,-19,1,1
0,-6,-2,1,-38,-13,-2,1
-5,3,2,-5,9,-4,5,-10
2,0,10,16,-34,-9,-3,-1
-2,-2,2,25,28,22,0,-1
27,0,-14,-6,-7,-4,-4,6
28,3,-10,-65,0,15,0,8
4,5,3,52,-1,9,3,-15
-98,-2,-7,-2,67,26,-3,-1
-43,-9,10,-32,-86,0,2,-2
-1,-20,-26,-14,-16,-12,-8,-14
57,1,-7,2,3,-21,6,36
-11,8,1,-12,-10,2,0,-3
-27,-3,-1,-16,6,4,-23,-73
5,-5,-1,-2,1,0,-7,-8
16,-1,-1,6,12,-8,7,17
10,1,2,-5,4,6,5,11
-2,3,-3,4,43,-17,-2,5
13,1,-11,6,-57,7,-3,-3
-44,-11,-12,-53,44,5,-5,-3
15,-4,-6,10,-36,2,4,2
1,2,6,-17,-3,2,-1,-4
-2,-3,3,7,8,32,9,-1
0,-4,-1,28,6,-7,-4,-1
1,1,-6,-28,10,-13,-6,-1
1,1,4,3,-29,9,0,-1
-4,2,-14,-13,-26,-16,-1,0
-5,-9,-7,21,59,-40,-7,-1
3,-13,24,-8,50,83,14,11
50,12,-35,22,-85,-71,-6,6
-84,15,1,16,-35,84,13,-10
71,-7,-15,-25,6,-35,-15,-2
-128,-17,2,12,34,4,-23,-59
60,-4,7,-1,-19,20,8,4
28,-1,-2,-5,-33,-22,-4,14
-44,1,-9,-59,-12,-17,0,-3
31,-4,-7,5,20,-14,-4,12
1,3,3,-23,33,39,0,-7
12,-10,-2,4,5,-3,-8,-3
-1,-1,1,-3,-19,23,1,2
-9,-4,-4,22,26,-9,0,0
-4,0,-1,23,11,-17,1,2
-3,1,-6,2,-11,-19,-3,2
-9,-2,-4,1,-5,32,4,-3
-1,-1,-5,-12,-7,18,4,-2
-5,-3,-5,-9,-29,-30,-7,-3
-1,-3,3,9,5,-10,-5,-1
2,0,7,-6,10,-26,-5,0
-7,-13,-16,26,-30,-3,-6,-1
-4,2,6,-13,57,-4,-8,-6
-3,4,-12,-17,1,80,19,0
-2,-9,-2,23,-12,-49,-8,-4
25,3,-1,-2,-8,11,-2,-6
-12,-9,1,-4,-14,-24,-6,5
39,6,5,-40,-6,-39,-9,-4
-44,3,16,-2,12,21,-5,-12
-5,-2,1,14,-19,-17,-6,7
-1,-8,-3,-42,-24,-28,-11,-26
-77,-9,1,29,26,-14,-4,-17
18,0,14,10,15,51,-1,4
27,-8,-6,1,1,-30,-1,3
49,-2,-17,-12,-12,-16,-5,16
-71,2,6,7,-37,-52,-1,-6
15,4,25,-24,-52,-5,0,0
27,6,-14,-25,54,111,37,2
-4,-1,11,11,4,-26,-18,-6
7,-6,-8,-7,10,-25,-6,-3
6,-9,1,7,-1,-10,-6,-1
4,-7,-11,-18,-20,-20,-2,1
2,-1,4,-5,-24,-9,-2,1
-2,-3,-4,2,-1,11,-2,0
-2,-1,-7,0,-1,1,-1,2
-2,-1,-7,-13,-1,0,3,-2
-12,-3,11,-2,8,-44,-5,-3
28,2,-4,12,12,-80,-13,8
23,6,-15,-29,-46,127,27,-17
5,-6,20,2,-51,-18,-10,0
-22,-11,-12,-9,49,6,-10,0
-89,4,-15,-6,-34,27,15,-20
23,2,13,-20,37,-11,-7,-8
11,-3,0,-2,-54,-29,-6,-2
5,-3,16,14,8,-20,-5,0
3,-2,-2,2,6,-6,-1,5
6,1,-1,2,23,-2,2,6
3,-6,-6,-37,-23,-1,-1,1
-4,4,13,24,-10,3,-2,-3
-5,-5,-21,1,26,-63,-13,-4
33,4,-2,-29,-30,37,28,16
-42,-14,-7,-32,0,-93,-6,-2
-10,12,16,38,7,72,-12,-26
-102,-11,-21,-118,-38,-9,-16,-9
7,-8,-7,-13,-2,-19,-11,-8
13,-8,-1,6,-21,-21,-4,3
14,-5,-1,-20,13,-8,1,6
10,-3,3,6,2,-7,-1,4
6,2,-2,4,4,-2,0,4
1,-1,-3,-18,-8,2,7,-2
0,-1,12,45,10,-31,-5,-4
2,-7,-4,-51,4,-76,-13,-3
34,9,4,32,-36,89,16,12
-3,-8,3,-46,-3,30,8,1
-23,-4,2,13,25,-34,-14,-16
-15,5,-23,9,-9,-8,-8,-7
22,0,2,-20,-34,-12,-1,2
-3,-4,-15,-23,5,-19,-7,-9
9,-4,8,5,9,1,0,8
3,-3,-3,-2,-3,-3,1,1
-2,-5,-1,-28,-26,-14,-3,-3
0,0,4,2,39,-23,-7,1
-7,1,1,31,31,-24,-1,-7
6,-3,5,-16,-25,33,6,0
-4,2,-1,-12,-38,15,-3,-11
12,4,-12,3,6,63,6,9
-8,-5,4,26,0,-2,0,-1
-11,4,-12,-48,11,-16,-5,-4
7,4,13,-13,-2,-20,0,13
24,-2,-7,24,11,-16,-7,10
7,4,13,-13,-2,-20,0,13
24,-2,-7,24,11,-16,-7,10
-3,-9,-21,-45,4,-68,-22,-16
28,1,5,33,5,71,9,24
