Channel_1,Channel_2,Channel_3,Channel_4,Channel_5,Channel_6,Channel_7,Channel_8
-12,-40,-47,-11,3,72,22,-5
0,5,10,24,8,14,-8,-1
-10,-10,-32,-23,25,-44,-8,-3
-2,-1,-13,-30,-32,-36,7,0
-6,-39,54,-51,60,-17,-8,2
-7,-107,-24,5,32,111,57,45
90,102,55,39,-9,79,63,67
81,127,-37,-16,-128,47,-18,-22
-128,-124,-47,-55,-94,-111,-103,-128
-10,-41,-26,11,41,-3,-77,-96
-24,-12,53,3,32,-29,-48,-28
59,76,29,63,52,-3,30,73
3,-41,-124,25,-92,-38,-7,-12
14,-1,-12,52,53,-10,2,-16
-60,-70,-43,-26,18,-49,-13,-4
39,-40,-23,-1,61,86,10,39
23,15,25,15,-15,15,22,10
-2,38,36,16,14,-7,2,-33
8,7,-8,-11,15,-30,-1,1
-8,-89,-28,-27,16,25,7,16
-36,-4,17,-14,-51,-27,-20,-18
-26,-2,-28,-4,7,-22,-31,-62
-19,-5,0,-7,-44,-64,-22,-22
38,-27,-37,19,46,127,35,16
50,49,41,-22,24,-36,13,27
-60,53,63,9,56,-61,12,15
-5,-74,8,19,56,-14,1,3
-30,-6,29,-7,50,-36,13,-2
23,40,-17,18,51,60,25,30
58,29,109,14,-81,10,13,42
-30,-51,-70,27,-46,2,-2,-35
-62,-10,-12,-7,-12,-16,-13,-27
19,6,38,-47,7,-19,-19,-13
19,-4,3,-16,13,-8,-26,1
-33,29,14,74,22,-47,-6,-23
0,33,-62,-102,-42,11,18,11
11,-60,-67,-61,10,127,13,8
9,5,61,15,-66,-82,-14,14
30,35,26,52,106,94,16,12
-13,6,-22,53,-33,-27,4,2
16,-13,12,-1,22,-55,-4,0
122,-15,15,-34,7,-18,-12,2
48,13,-101,48,-9,-45,3,8
-67,8,-29,16,28,-23,-1,-11
23,3,72,-108,-21,-23,11,51
25,28,-29,-50,-1,52,12,3
-45,4,-2,-51,-10,-16,-17,-33
2,-46,36,-3,93,-38,-34,-29
24,21,17,61,3,6,14,25
21,0,-7,0,6,16,-3,2
-7,10,27,-79,126,-25,4,-13
-34,6,30,68,-33,-4,13,-4
-44,-78,-74,-47,-68,-43,5,0
44,-4,-21,-23,79,47,2,12
-47,22,20,0,-52,-60,-32,-27
14,29,-32,40,-49,-64,-10,-20
-61,-33,13,23,31,22,13,-16
80,-35,35,-22,67,88,19,9
-7,103,55,-35,-69,-76,-28,14
9,19,-33,-5,40,35,-17,9
-30,-63,36,27,-70,-25,20,10
74,30,40,49,-22,21,24,16
-7,10,-17,-16,64,-51,-28,-45
-87,-18,22,-54,-33,56,9,12
51,1,10,-9,62,-108,-10,22
-26,-19,-72,-21,-16,50,-25,-54
-25,-31,46,-46,-70,-75,-30,-76
-47,24,12,12,18,-37,1,6
28,21,6,-38,-35,5,2,34
27,-26,-26,-2,30,-4,2,11
6,-6,66,58,-1,-12,15,12
-2,-51,-53,14,60,37,20,0
32,32,34,44,29,-90,-6,18
34,127,-1,-87,26,68,-3,-5
-26,50,77,-62,-109,77,-8,7
-69,-128,-88,-5,-128,-65,-46,-52
-19,-22,-50,71,16,-8,9,-7
28,10,35,7,24,-5,14,26
70,60,35,17,78,-106,-21,22
-39,70,50,-93,-54,19,20,-3
-81,-71,-54,-27,4,-47,-22,-59
-2,-64,9,103,60,27,5,-1
47,7,63,-5,-17,-54,0,31
80,117,-22,-74,-64,33,3,19
-86,-63,-81,-30,79,-13,-18,-34
-51,-76,-64,31,-6,52,2,-8
65,48,32,49,-6,-16,5,2
-15,7,-12,-55,-37,-29,-10,-11
9,-71,55,-24,-103,-28,-26,-4
1,-16,-57,32,62,9,10,11
4,31,32,44,62,26,9,14
11,78,-15,-28,22,-52,25,3
-2,-37,-118,-72,-62,32,-6,-4
-75,-2,16,-66,-95,-34,-49,-60
43,-39,-4,1,13,0,-21,-11
-27,-32,-9,51,-44,3,6,0
2,-25,-11,100,44,-128,-9,13
48,54,86,-19,69,127,69,34
14,103,53,-92,7,-36,-13,-43
-64,-57,-128,-75,17,-54,-52,-36
-20,-71,-35,50,-42,-26,-1,3
-11,-21,8,70,8,-44,5,6
14,22,18,-3,1,30,20,17
-47,4,23,-1,81,-27,-5,3
21,112,45,56,29,127,20,16
-2,56,-22,71,63,-128,-25,2
8,-83,-18,-67,-65,-27,0,-10
-41,-57,-52,-38,-63,-10,-14,-22
-52,-36,3,-18,-56,-82,-16,-2
57,20,-11,14,-32,63,12,28
45,46,39,16,7,-51,1,-12
-72,-2,8,28,-17,-14,-2,-23
20,-40,-6,-13,112,-92,8,34
19,1,25,-79,-54,40,10,3
-19,81,-9,47,7,22,-10,-2
22,24,-12,-1,-89,-56,-5,19
63,-94,-8,66,-15,-55,-23,-9
-47,4,46,5,64,90,12,-38
-44,118,42,-53,12,2,8,-10
-16,-51,-64,-23,82,20,-16,3
-16,-67,-68,66,-100,-102,-15,0
38,-37,-22,-22,-128,78,9,48
56,4,33,29,-17,-30,5,5
-72,-4,30,-6,114,-53,-11,-24
-13,-44,10,-7,127,-128,-18,2
49,22,4,5,-17,127,37,7
4,97,-15,3,-87,-91,17,4
-29,19,36,-44,-43,18,-9,-9
11,11,35,-49,-20,-41,-16,3
12,-37,-23,-11,110,0,-20,-9
8,-7,-21,59,-128,-28,-10,-23
-19,26,37,48,42,-83,4,5
3,-38,37,-52,2,127,25,22
56,-4,-22,-17,43,-20,6,38
-11,38,23,-31,-83,26,3,-28
-71,-24,-8,-13,12,-13,-21,-57
-10,-34,-67,-3,20,-17,-18,-18
47,-56,28,6,-55,-29,3,48
43,18,-6,58,89,-65,0,24
-11,88,94,-34,-48,48,13,7
19,54,-21,-8,44,-56,-12,-13
-6,65,25,41,16,40,8,-29
-95,-93,-128,-90,-128,-75,-38,-41
-21,-71,-12,-51,58,-15,-24,-25
-1,4,31,30,-1,9,9,15
22,-12,14,91,85,-23,25,17
47,21,1,10,53,45,19,12
22,16,-10,-68,-52,11,-2,10
-39,-28,-33,-64,-33,-34,-24,-15
16,-35,45,55,-74,-127,-25,-14
-86,-39,-62,32,125,127,33,-20
44,67,23,37,-88,-47,24,40
18,6,-42,-85,57,-26,-21,-24
-43,-55,-38,-53,30,-44,-32,-31
-51,-24,14,65,41,-43,-19,-3
101,66,66,71,-2,20,14,36
-50,12,23,-17,-21,73,28,-19
-26,27,-58,-73,1,2,-8,-29
21,-30,-25,-62,5,-13,-7,6
-1,-34,-30,95,-55,-67,-25,1
-1,19,-23,12,95,10,15,0
34,-6,-3,-23,-106,32,12,11
-2,21,89,-33,18,6,-2,-12
-45,-76,13,-32,59,-42,-31,-24
-48,-58,-89,62,-26,-3,-2,-12
-7,109,38,30,-24,16,22,14
13,21,-9,5,61,2,-1,2
38,-30,-55,-23,-45,-128,-38,0
-12,-17,-22,-47,49,127,41,11
6,-7,49,-32,4,-81,-20,-22
-58,4,7,45,44,-13,-6,-44
7,-2,-28,44,6,-18,16,2
61,-6,9,5,-75,-40,4,21
-88,20,5,-47,39,6,14,16
21,-42,-24,22,-47,15,-5,25
67,35,4,47,22,-128,-15,-39
-32,-13,11,-44,120,101,17,-25
-22,-89,-46,-65,-70,-18,-33,6
39,15,-16,-6,3,21,21,22
72,127,87,51,1,16,3,-9
-100,48,60,-62,-34,-54,-34,-32
35,-106,-128,-3,15,-22,-6,-14
-99,-41,-15,-16,-4,-22,7,-2
54,-9,12,-9,3,-44,11,30
27,8,43,28,52,39,15,12
-10,-6,-4,35,-39,30,-5,-13
-20,16,-20,-16,-12,1,0,-20
33,-28,25,-10,-11,-31,-7,22
50,41,8,10,43,-39,-7,29
-49,6,-54,-65,-42,127,30,-6
-46,81,6,37,50,-15,-18,-34
38,-32,6,-51,4,3,-7,-32
-19,-21,-20,-60,-100,0,-21,0
13,-4,-10,-1,7,-16,-8,27
21,-34,-23,45,52,8,6,7
15,-23,64,64,70,-71,5,11
-67,50,42,22,-55,-128,-39,-53
-56,25,7,-96,20,127,31,-25
18,26,-10,-6,-31,-22,-5,11
-14,-64,-36,10,90,-16,-1,14
11,-23,-25,69,-119,-16,-9,-3
60,127,74,37,55,-23,18,36
-8,13,54,-25,0,2,0,18
47,-13,-9,-56,15,-28,-19,9
-18,-5,14,-23,4,14,-12,-39
-29,-59,-42,26,-45,-22,-2,-17
-41,-15,22,42,16,-7,-4,-11
87,84,9,-40,40,26,14,34
41,3,-49,-76,-119,-19,-5,5
-94,-23,-14,22,-9,26,11,-12
-41,-97,-8,31,-29,-45,-4,-11
-8,34,-18,46,115,43,17,-7
59,84,51,-22,-4,30,7,44
17,-20,-19,-86,-14,-40,-28,-5
-54,-47,-18,-5,-36,5,-16,-27
72,16,8,47,27,-4,14,18
-31,27,23,4,3,-20,9,-12
-76,-42,-12,34,114,-41,-24,-23
31,88,20,13,-116,-16,-10,15
0,-11,0,-26,-78,-39,-1,23
2,-88,-83,40,-26,-28,-14,8
37,-15,16,20,-36,41,2,-2
-37,-32,37,-30,127,-128,-36,-26
-23,39,-53,-51,-65,76,8,-7
10,80,31,-60,-78,106,42,25
-25,-90,-46,-30,-27,-7,-14,-33
39,-2,53,67,36,-2,5,10
27,51,38,14,109,46,14,21
-21,-6,-19,-42,-114,-26,-11,5
-55,-13,-65,1,-71,-1,-9,-38
-19,-56,-33,44,51,-38,-14,-25
-14,-75,-100,-23,75,-17,-2,-3
49,66,54,-22,42,36,26,39
25,26,5,-25,4,-26,-2,18
11,45,-33,41,-57,-14,-7,-9
-18,-18,16,16,-60,-1,-3,-47
-32,1,18,43,89,24,1,-3
-20,-15,-8,-45,-9,-95,-16,17
27,-59,-16,-41,-4,-39,-17,-3
1,-7,51,10,15,42,29,-4
15,22,-71,31,-38,-9,-1,-14
22,68,6,-47,-37,-42,2,18
-82,-23,30,-17,7,19,-21,2
-18,-40,-12,6,43,-7,-8,-14
-21,3,-3,46,-19,-12,-7,-9
72,27,9,13,14,-42,12,6
0,-15,5,-3,65,-27,-13,-20
-34,-16,-7,-36,-90,23,-11,2
17,-39,10,26,-98,-48,4,17
6,-24,16,64,14,30,13,8
35,67,45,37,-40,-20,9,27
34,48,4,6,53,-28,-5,-5
-95,46,-76,-83,-26,-42,-28,-22
35,-63,2,-54,23,83,-2,-6
-31,-61,14,23,-20,-23,-18,-22
8,-39,-69,19,-16,-22,2,-1
24,-9,-47,-13,52,-33,8,12
-25,-4,27,-10,-6,-42,-9,24
105,56,72,29,-23,-28,15,21
-97,14,-68,-101,23,21,-4,-16
-33,10,-26,8,-51,-34,-8,-22
-30,-13,18,16,31,-3,-18,-19
16,-3,13,0,17,-98,2,24
32,-58,-18,7,30,127,16,31
6,26,-1,10,22,6,0,4
-28,76,44,5,-48,-69,-6,14
14,-2,-45,5,-92,-1,-19,-19
34,-9,13,-32,25,-8,3,-24
-118,-13,40,-118,5,-63,-17,-22
47,-57,-92,45,53,58,16,19
-26,41,35,46,-25,-50,16,7
1,61,82,20,37,15,5,5
42,-95,-101,-24,-13,33,-20,2
1,34,-41,-23,-12,-45,-15,0
-27,-5,-2,25,-57,13,-1,-5
55,-19,-19,56,62,81,2,14
12,-26,-9,-13,-104,-23,9,3
-24,-2,9,17,110,25,17,1
-36,48,55,41,-37,-39,-23,-13
35,59,37,26,-31,57,17,5
19,-28,-76,26,-6,-50,3,-2
4,9,-20,-45,62,75,11,-3
-2,-33,4,-40,-10,7,-22,-5
40,-43,24,29,-53,5,-8,4
-88,1,-1,37,9,-32,7,-4
3,-2,18,17,42,51,5,-32
49,6,37,-20,-10,-30,-17,-7
21,5,-66,-48,-20,-7,9,15
-62,-18,9,-85,26,-50,-6,6
45,0,0,19,6,-2,3,4
28,-15,-73,-68,-82,-12,11,18
-103,-27,12,-79,-82,54,-26,-46
11,56,39,-74,16,4,-17,-7
12,15,-12,-8,-20,-14,-21,-4
-18,-63,-1,53,25,-5,10,6
23,-1,-36,-18,82,-20,20,23
80,116,74,11,-89,-53,19,33
-72,-31,-100,-122,-45,111,-28,-73
-14,-24,23,36,-16,47,-18,-25
-14,-30,-4,97,10,-13,4,8
16,-10,-6,83,6,-16,15,16
19,40,55,-84,31,-15,10,8
56,50,-20,-49,-8,13,-7,26
-2,-106,-17,25,32,8,-8,29
-85,-18,22,99,24,-20,-4,-21
-23,92,-16,11,-10,55,44,-35
-61,3,-28,-128,74,39,-20,-45
-36,-40,65,-42,-117,15,-18,16
12,-34,-40,110,72,8,-27,4
3,-97,-15,127,12,-46,3,17
63,-7,13,127,-5,-50,13,34
60,127,100,-61,-83,127,102,28
-93,6,-13,-128,6,-59,-67,-71
-44,-128,-128,-12,21,-48,-50,-29
4,-24,25,68,28,-1,7,22
94,6,10,47,-59,-29,19,42
-10,4,38,-45,9,44,9,-14
-76,8,6,-79,23,-14,-12,-46
14,-4,3,-24,19,18,-4,-9
10,-9,-5,29,-9,-8,1,10
12,21,-9,5,13,6,12,12
12,-27,0,-14,30,13,4,17
20,6,5,-55,-78,12,6,16
13,46,19,30,-42,-51,-3,3
-4,-26,-23,41,-20,-24,-3,-5
0,-3,-43,10,-14,-20,-7,-8
-3,28,85,-4,32,50,4,9
40,-30,-41,0,40,57,18,58
-35,-5,4,-11,16,9,9,-14
-82,17,-63,-44,31,-5,-33,-99
11,-49,-26,63,-40,36,-17,-24
-57,-7,21,13,-70,18,-15,5
26,-1,11,-57,-30,41,-4,13
30,-24,-32,10,-38,-16,15,28
51,27,19,74,57,-18,14,20
-36,29,80,-8,-49,-21,-2,-33
-109,-9,-59,-79,6,-28,-12,-22
48,8,0,-19,62,-7,-8,12
54,-26,-3,3,16,12,4,27
-50,-13,23,55,-47,-22,2,-15
3,-39,12,53,15,-24,-4,-20
-30,19,-20,-35,-19,-7,-8,-16
22,57,28,-50,59,-13,-14,8
15,-23,-2,-36,-43,-10,-2,4
17,29,38,76,-52,40,10,9
6,20,7,64,-46,38,32,10
-27,-36,-80,-53,41,6,-10,-4
-17,-33,-10,-84,2,-47,-37,-7
-63,-23,5,59,43,11,3,-2
59,-38,-12,12,-60,18,18,26
65,42,-78,5,-3,-33,18,-2
-69,31,-5,-128,1,-14,-34,-57
-1,12,-9,4,-26,-11,-9,5
-41,-31,-16,14,78,8,1,1
17,-1,57,3,-22,-13,-2,-7
-6,-21,-53,22,-78,-5,-1,-3
12,5,18,9,58,-55,-1,11
7,-3,7,41,13,53,-2,6
1,-6,-14,19,97,-4,-6,9
24,-5,-10,54,11,51,35,27
9,-33,10,52,-15,-53,26,20
-11,69,42,-52,0,-26,-10,-10
31,41,-29,-94,11,-35,-26,-34
-115,9,101,22,14,27,-17,-33
32,-17,-62,78,58,-87,7,12
14,-30,-106,1,-111,74,11,19
63,-47,20,-79,-11,-27,-12,19
-49,3,69,-60,-8,24,-30,-24
-34,17,1,45,-5,-34,-19,-60
-43,7,21,73,20,10,19,-8
29,-16,-23,27,23,-34,6,17
15,-23,-3,-45,-42,-37,-14,-4
25,36,3,-20,23,9,3,4
10,10,-14,-12,-5,8,-10,5
-23,-8,20,49,75,-8,7,-9
17,-28,-117,26,-80,73,7,14
12,-25,19,-4,46,-14,-2,-1
-54,24,9,-25,108,2,-3,-10
29,45,23,-7,-76,-17,-12,-12
-10,3,-1,76,16,1,4,-2
38,-3,-53,23,-15,-21,13,9
-10,-39,1,-28,8,-6,-6,1
5,-5,16,-44,-6,-14,-14,15
22,-7,-13,52,32,-9,17,14
-4,-3,-19,49,-28,106,10,-3
17,-128,19,88,-10,-100,10,23
19,76,7,34,115,-31,19,2
22,127,53,-128,-128,0,-10,-30
-128,-128,-114,-77,-61,-100,-117,-114
-31,-75,-29,127,84,-18,-9,1
36,-9,39,127,59,9,35,38
39,1,3,-20,4,20,25,34
20,0,-1,-37,34,-24,-9,1
9,14,-9,12,85,12,16,17
-6,3,11,-1,-109,-18,14,2
-4,18,23,0,-14,2,12,-2
23,18,5,-52,-21,0,5,17
14,-10,-24,-128,-74,-42,-11,13
-54,-16,3,49,57,28,-11,-25
-60,-31,-106,-3,-2,54,-15,-35
36,55,30,44,74,-13,4,10
2,14,-9,-101,-26,-23,-2,15
37,-21,-20,-81,-73,12,-5,10
25,-15,28,65,52,-4,-2,-8
-69,-1,-31,38,-7,-1,15,-10
3,42,-21,-58,-49,-20,-5,-8
10,1,17,-40,-62,14,-23,-19
-2,5,2,-28,40,-18,-5,-3
13,-9,-20,12,-8,9,-7,17
-18,-21,-14,7,5,-57,-8,-13
45,-3,26,22,-16,8,9,-6
-10,20,28,-35,14,16,9,-15
-36,-39,1,-108,-11,-11,-32,-45
-12,-60,10,127,34,-31,-4,4
35,79,2,127,26,24,17,14
22,57,-13,-57,-33,18,8,22
-68,-31,58,-81,-10,-73,-19,-8
-36,-14,25,-31,-16,-9,-7,-11
0,-24,-33,48,33,30,-3,-9
3,-15,-31,39,-3,1,6,-2
9,6,7,14,48,3,3,1
15,11,12,-87,-106,-17,-4,6
17,-2,8,6,-3,-50,-15,4
-47,-42,20,83,50,48,21,14
71,-23,8,127,35,-5,11,33
-25,64,28,117,79,-109,28,29
-65,1,25,-128,-128,127,28,-52
42,127,-48,-128,-33,-62,-56,-54
-20,-93,-128,-49,-16,-63,-74,-40
-5,-57,97,122,12,-24,-1,14
51,-44,-12,47,30,14,35,24
-2,-8,51,-1,-4,6,12,22
17,-7,-44,6,74,18,12,20
4,14,9,6,-21,-4,8,7
-5,16,25,37,-15,0,9,-2
-4,7,38,38,22,5,6,1
2,-2,-12,-80,-31,-8,-6,5
6,-1,-10,-49,-5,4,-11,-1
0,3,5,-10,-44,7,-5,-10
-8,3,-9,11,-29,-27,-1,-11
-8,6,23,9,32,14,-1,-7
8,52,3,-60,23,-4,-2,5
18,-30,-70,-47,17,-15,-8,11
-36,-57,94,-26,-31,30,-7,-16
-42,-4,0,62,-24,1,13,-5
12,17,25,19,30,-13,12,34
97,24,3,-92,11,-97,-2,39
-53,-3,37,-16,-14,127,-2,-42
-20,0,3,-37,42,29,-26,-70
-18,-10,-36,22,-21,-64,-11,-23
-54,4,12,-21,3,5,3,3
-30,-20,17,25,-6,-4,12,21
47,-20,-29,-45,-34,-20,2,39
62,3,-22,87,40,-30,-8,2
-17,17,-8,9,23,31,-6,-25
1,-8,-2,-9,13,-10,-10,-18
3,-8,7,-38,4,-7,1,15
9,-6,-6,-9,35,-3,14,18
-3,-32,5,50,-18,-11,7,3
2,1,16,127,40,61,11,13
11,94,57,3,70,-128,-10,-7
21,-80,-52,-128,-59,127,36,21
36,-28,-72,-37,-12,-52,-15,4
-25,93,98,-13,-18,-31,4,-38
-128,-45,-38,-80,22,-73,-64,-92
58,-14,-11,20,-112,-63,-24,7
-6,20,49,74,84,10,-5,12
49,54,49,-31,-45,37,38,14
-74,-27,-68,-53,0,19,2,-4
29,-17,37,56,42,24,6,7
-15,-76,-113,-49,-10,-10,-9,1
5,-11,-11,-29,-33,-17,-13,6
31,21,23,35,20,-16,8,60
19,11,34,73,-23,12,18,-3
13,11,-3,16,-32,0,1,-35
-93,38,22,-65,8,12,-15,-26
-1,-18,34,-67,14,-27,-20,13
6,-9,-14,-27,5,44,12,10
-2,6,-13,34,5,50,7,3
15,-33,-48,127,-17,-11,12,4
-2,-47,-25,-38,14,-49,3,6
-24,46,6,-26,-51,51,-1,-2
7,111,77,-38,39,10,12,32
16,-42,69,7,16,5,-9,-6
-105,-20,-128,1,-6,-12,-22,-49
6,-8,-23,-41,-83,-59,-15,-10
20,-35,3,-42,41,122,3,9
26,-11,12,-27,21,-10,4,28
25,2,7,59,-13,-11,14,22
4,-1,6,10,7,-6,12,-31
-39,3,18,-12,46,-92,-15,-43
9,31,51,-53,-25,57,-5,-7
-36,3,-45,-63,63,127,4,-6
26,51,-9,67,-9,26,14,19
-2,-64,15,7,-71,-53,3,8
10,7,-26,51,56,-31,-2,10
-6,17,14,-54,-35,19,1,15
2,-21,41,56,9,-70,-2,12
13,56,27,103,20,-10,4,4
59,11,48,21,54,21,8,5
-123,-49,-57,-120,-44,-22,-36,-30
-43,15,9,-60,-13,-24,-15,-7
28,-10,-17,7,-14,2,-5,-11
-26,-5,27,80,4,-8,5,-10
9,16,0,18,19,25,12,-1
16,7,-2,-5,40,-28,4,9
10,-34,-6,-126,-20,15,6,10
16,-36,-4,-5,-61,-37,-19,10
-7,1,-34,117,119,95,-5,-14
-29,59,4,34,-58,-23,9,-8
-5,-36,52,-92,-17,-30,-15,-18
-48,-11,2,-20,0,16,-11,-8
45,-30,-25,-7,10,-10,-1,18
-24,-10,-8,78,-42,-4,5,-2
-21,35,50,48,-25,1,7,-30
50,16,-26,-45,8,-13,-3,-5
-18,-64,-37,-89,10,-12,-22,4
12,4,21,7,7,75,-8,2
-3,42,-54,44,7,-3,7,5
2,12,32,65,-29,-128,-9,2
-15,-34,2,-30,14,106,17,5
41,0,-23,-42,-13,-16,-1,36
13,-3,41,31,-3,-11,5,27
-65,-19,-40,109,108,3,0,-10
-29,-1,9,35,-1,-16,-12,-40
15,22,-10,4,-74,12,1,-38
-54,-22,32,-70,-10,-38,-27,-12
40,-13,-26,67,-1,5,6,12
-5,35,-24,102,54,-52,6,20
46,-11,43,-30,-48,21,16,18
-22,-2,-28,31,89,23,-7,4
-15,32,32,-72,-1,16,-10,11
28,-70,-98,-63,-128,-63,-24,9
-15,3,14,71,-24,101,12,-16
18,4,55,50,30,-28,2,-3
-40,-43,-102,-31,24,5,9,-10
-18,0,-1,-57,13,-1,-11,-35
7,20,3,-8,70,38,3,1
49,26,22,69,-42,27,14,27
-33,-15,-33,39,-11,10,7,-6
-10,21,44,18,-18,40,8,-24
-49,4,71,-80,21,-68,-24,3
17,-40,-128,-8,127,13,-23,-8
-27,-66,57,118,-88,5,13,12
48,73,56,127,-48,84,33,14
42,127,5,-79,-13,20,45,53
-72,-105,-122,-114,29,-46,-62,-48
1,-83,-102,-31,18,-41,-42,-11
-29,-14,13,58,8,-22,-1,-30
-49,10,24,60,44,89,13,-39
5,19,38,-2,-5,4,22,17
32,9,58,-77,-17,19,8,20
22,7,-24,4,-69,-11,-5,15
0,-1,-37,6,2,2,2,-2
-1,-15,0,26,-4,-13,-1,-1
10,16,19,-24,23,-26,11,12
8,-8,42,-26,-13,21,-10,7
12,46,21,37,47,57,16,8
23,56,-11,-27,8,-37,8,7
-45,-30,-86,-100,-44,11,2,-26
-40,5,-11,-6,-91,-46,-15,-10
-3,-30,58,-52,1,-31,4,4
-28,-4,-5,23,36,127,8,15
81,45,19,66,-26,-91,-20,-11
-83,-22,-37,-75,-15,11,-31,-49
18,-26,-68,22,-52,11,2,2
72,-16,9,71,50,-62,6,68
-33,-12,35,57,15,127,32,-26
-44,26,38,35,104,74,-6,-87
-19,1,-29,-44,-61,-41,-6,-3
17,0,-39,-39,-24,-30,-14,13
4,-100,-10,-27,-11,5,-14,11
37,101,30,127,127,-128,-23,22
29,64,108,-128,-123,127,86,43
11,-28,-128,-89,-20,-57,-11,-10
-64,-23,-22,-40,-33,-20,-23,-22
-3,3,-3,11,32,-17,-25,-13
21,-14,2,41,-3,-8,-8,0
-25,-17,43,127,21,-2,17,1
28,25,-7,53,106,22,20,17
57,33,40,-4,-118,8,-6,19
-35,-24,-72,-104,-65,-67,-42,-39
-81,-95,-21,15,62,9,-1,-4
30,1,19,60,-2,-33,21,4
6,127,-9,28,-59,-44,-7,-20
21,-35,-41,-78,14,29,-18,6
21,-36,-53,-106,-25,-11,-16,10
-25,-13,30,29,-6,-9,-2,0
-39,-17,-20,88,84,35,9,-12
-37,16,11,19,-53,-56,13,-9
54,6,35,20,87,-53,0,44
11,22,32,-15,-76,-72,11,22
-15,57,1,-71,-65,66,15,-19
-12,-69,-117,-11,-25,-46,-31,-52
-43,26,25,28,17,-19,-10,-9
36,64,11,-3,33,5,9,28
-5,-110,81,-45,-2,-22,-14,15
5,-16,-85,16,-2,12,-7,5
15,78,16,46,3,-37,9,13
-4,-11,-6,-23,-76,94,20,-8
-4,-14,19,-44,84,21,-8,-4
14,-18,-9,18,13,-27,-11,11
-2,-5,-24,-10,-99,-76,1,-3
-52,8,3,56,72,71,23,-6
79,32,32,-9,-111,48,15,7
17,95,-26,-40,38,0,-3,0
-70,-53,24,-91,-9,-2,-33,-41
10,-66,-36,60,23,-17,-15,1
15,-74,11,38,64,-2,0,-4
5,26,8,111,15,96,32,25
44,76,34,-29,-1,8,25,25
-40,-36,-26,-120,-8,-11,-25,-22
-72,-60,-42,-36,3,-5,-34,-36
-4,-14,-26,74,-3,-32,3,3
12,4,13,47,36,0,6,2
17,2,11,-21,-11,-39,7,20
15,-27,27,-21,2,57,13,32
52,42,46,76,45,-7,15,5
-5,28,-58,-2,87,-62,-16,-55
-121,-29,-31,-28,21,127,6,-29
11,-49,-83,-126,-128,-79,-20,2
8,-29,62,9,-46,17,-7,1
53,84,-32,48,36,-9,5,11
19,83,53,41,71,13,12,4
-61,-88,-14,-74,9,32,-11,-16
-4,-68,-72,21,21,-12,-11,20
20,4,14,-33,-59,-24,-4,15
19,19,17,63,29,27,9,-13
-16,1,1,58,52,-25,-9,-17
5,-55,-32,-24,-64,34,5,10
2,36,20,-6,11,36,24,15
-10,52,-67,-36,19,10,-3,2
-2,-30,-13,1,56,-16,-21,-11
3,-38,42,56,-34,-76,-17,-19
24,-10,-60,61,-58,127,30,12
26,19,-62,-36,23,53,18,36
7,-55,9,-89,-9,-51,-24,0
-96,-36,-17,36,32,2,-10,-21
-13,15,23,14,2,1,-17,-37
-8,40,19,45,-83,-111,-5,4
15,12,10,-15,-11,92,2,10
32,-4,-5,-78,-4,-35,7,19
39,35,4,-2,-15,-17,4,20
-24,-1,-10,23,30,0,-8,-14
-36,-32,5,17,19,23,-3,-9
-5,-31,0,-31,8,28,10,12
23,22,-9,-35,-6,-15,-4,11
43,31,38,26,-6,42,5,-4
-49,4,46,34,-6,-82,-18,-15
-30,-29,-39,-7,46,56,2,-20
-20,-23,-10,-48,-39,37,7,5
21,-8,15,-28,-52,-11,1,18
25,8,47,86,-3,-28,12,10
-25,32,-63,127,67,13,3,-13
14,85,-17,-11,8,82,2,-8
18,-86,-1,-103,-56,-76,-26,6
-63,-35,-53,29,108,26,0,-16
34,38,47,52,-27,-10,0,14
-19,18,9,-68,-76,13,4,-6
-19,-24,1,27,44,-48,-28,-55
11,-32,15,-71,33,49,7,-9
-38,12,26,-56,-12,10,-3,10
39,36,44,39,30,-12,8,20
-1,0,30,69,25,-10,15,2
-48,-14,-20,-22,-46,-6,-4,-8
37,14,14,-76,7,30,10,14
-15,-9,6,-15,54,-6,-7,15
5,20,12,8,-46,75,5,-10
0,14,-29,19,23,-7,0,-12
11,-89,-43,-6,2,-42,-13,-2
-23,-4,56,-68,4,35,10,10
-37,8,-37,-27,-26,-12,-12,-19
17,-4,3,25,20,8,4,-5
5,13,-1,38,-13,-9,2,-4
-20,14,12,-21,-48,-21,-5,3
14,-14,-12,-29,53,28,-4,11
16,-32,11,9,46,-67,-18,16
20,32,24,49,-6,127,10,-11
-19,10,12,-46,-38,-12,15,-25
-59,-46,-60,-54,-3,21,2,-1
42,32,-8,-41,-71,-26,-9,9
38,83,-17,-25,57,9,-11,-17
-57,-38,103,-2,-3,-19,-19,-32
-44,-49,-36,24,10,-8,-1,-9
15,-8,13,37,-36,-4,9,23
41,1,19,-13,54,15,8,20
29,34,18,-6,2,10,2,10
2,14,0,46,0,-18,-1,-3
-18,-4,-13,56,-4,-60,6,7
-26,-19,-13,-17,11,56,-16,-32
-5,-2,16,-51,-4,-30,7,6
-32,-11,30,-64,31,29,2,-5
1,-16,-100,22,-34,15,3,0
9,12,33,57,-4,-8,-7,0
15,21,-37,-39,-13,-12,-5,2
-14,-50,-50,-88,-36,-51,-1,35
40,-19,8,58,44,37,4,1
25,93,51,37,15,66,9,-27
-128,29,0,-128,-74,42,-14,-47
-7,-72,0,-38,-66,-19,-30,-22
7,-34,-119,-21,91,-8,-6,10
16,7,82,-6,71,-2,1,18
20,-5,-6,90,-25,-128,-13,22
16,12,35,59,-29,127,43,12
25,21,-16,-30,45,-19,6,2
-50,8,-5,-92,-19,-29,-10,-13
-24,-18,-22,-19,11,-5,-13,-29
38,-19,-15,48,-103,-57,-9,24
19,-13,-8,26,-29,25,5,-3
-67,28,23,13,110,78,1,-18
5,16,11,-128,-63,46,1,3
35,-26,-58,14,8,-10,2,10
-47,-29,0,49,0,8,14,4
-7,39,77,69,101,-59,11,-4
24,5,-9,-63,-64,7,2,20
-6,-21,-64,-128,-20,33,-21,-12
-17,4,-7,14,-66,-17,-20,-21
-7,-14,23,69,75,-9,-5,-12
6,44,-28,66,-18,-6,13,8
5,9,6,-21,19,3,8,10
20,-23,54,-44,17,-1,4,23
30,-18,-4,47,23,31,5,5
-128,76,13,16,9,-26,-4,-49
-46,4,7,23,9,40,-2,-26
25,-74,-31,-77,9,-10,-15,-14
41,12,9,-46,-29,-31,-7,13
-12,-17,-41,2,10,21,8,3
-15,-1,-5,86,21,-15,6,-6
10,0,23,41,-19,-7,2,5
6,-8,41,-22,-17,2,3,11
-4,29,48,-49,12,-32,-7,11
43,38,28,45,14,55,5,14
-55,-71,-47,-42,-69,-32,-4,-20
-33,-47,-114,15,28,29,-15,-38
-5,-2,86,-26,-39,-19,1,5
14,0,17,11,17,1,10,26
10,3,39,56,8,11,-1,1
18,18,-40,0,7,-41,-24,-39
-49,-32,-88,-48,10,27,-9,-13
2,2,37,-44,-18,-20,-2,6
59,5,6,-36,-34,1,-2,27
24,8,40,16,9,15,6,9
-56,3,-10,80,48,-15,-5,-6
-32,-11,-21,31,40,44,18,-26
-25,-13,15,-22,4,-2,11,3
57,-12,16,-20,-35,-42,-7,11
11,35,-14,9,-1,47,-2,3
-5,44,50,-13,-26,-79,-13,13
46,-21,-38,54,71,127,10,6
-66,12,-25,-30,38,-52,-11,-53
-66,-60,70,-111,-65,-21,-21,-44
-21,-19,0,13,-72,6,-4,2
-3,14,7,49,22,-28,-4,1
24,15,-9,56,25,-46,-4,9
29,8,17,-2,39,72,12,15
18,-45,-54,-82,-40,35,-2,20
-13,8,37,9,-10,-54,-15,-7
-19,21,-21,47,56,23,-3,-34
-5,-16,15,5,-57,15,4,-3
24,-10,-64,-24,8,-43,11,18
-15,-12,-47,-63,12,44,12,7
45,28,59,54,11,-52,-14,18
1,19,63,56,-4,23,-12,-18
-46,-17,-77,-1,41,7,3,-17
-32,-10,-2,-30,-90,-20,-1,-2
54,0,-40,-40,-29,-35,-3,27
21,-21,-20,-13,-15,39,-10,-22
-80,-18,52,34,30,-13,-1,-39
-1,-41,-15,78,-6,-29,-6,-31
34,26,23,13,24,55,11,34
33,47,53,-60,27,-1,10,26
-21,-12,-76,-16,2,-2,-4,3
-5,3,37,3,-12,10,-12,-27
-3,23,-4,-11,-3,4,-4,-9
10,22,1,-11,-15,-16,-4,10
-10,-38,1,-21,-27,14,-15,1
4,-16,26,45,-7,-22,-7,4
-10,-20,7,85,15,16,20,4
-21,-31,-44,54,41,-48,-1,1
95,53,56,-7,2,115,29,21
-49,15,-3,-51,94,33,-12,-17
-118,5,-33,-35,-79,-23,-13,-23
-30,-94,-41,58,-26,-92,-29,-25
33,-6,28,122,82,96,13,9
45,127,23,-37,-95,-9,25,39
-20,10,4,-106,29,0,-12,1
1,-48,29,-24,0,-13,-33,-28
3,-32,-70,34,16,6,-12,-27
16,17,46,68,8,-46,6,29
-1,7,12,-26,-9,-83,-10,9
-42,3,2,-114,-15,127,36,-28
-30,-28,-55,-1,-3,-22,-14,-21
14,-29,-9,56,-55,6,0,-3
51,24,78,36,14,-9,12,19
-4,33,-21,-40,-1,-6,7,21
7,22,3,-30,27,-3,-12,12
39,1,-4,-9,55,2,-20,-18
-54,-33,-24,11,17,0,1,-13
6,-9,-18,34,-81,-21,-1,-13
4,-19,28,-67,9,-13,-5,-9
-1,-5,6,-62,1,-6,-13,-17
-4,-19,27,37,-28,-14,4,3
5,41,33,61,18,13,15,6
25,33,7,41,-48,17,14,12
12,-17,-37,-56,16,-31,-7,14
59,5,-4,3,7,14,-6,40
-45,-13,7,1,-9,-18,-4,-9
-105,-17,11,17,-3,8,-2,-52
28,-99,18,29,7,-29,-15,-47
-9,72,39,1,-27,35,-3,20
38,98,28,-72,34,-5,14,16
-20,9,39,-39,-51,-33,-7,7
0,-39,-70,19,-40,-7,-4,-2
21,-17,-24,44,32,-11,7,12
-7,-25,37,0,72,19,-8,2
4,-14,34,-45,-33,0,1,6
12,4,-34,-22,-97,15,2,3
2,43,20,101,16,8,4,-10
-17,-5,-28,0,46,1,-10,-10
-1,-8,-2,-33,-11,-19,-6,0
10,-2,20,-47,9,-66,7,8
6,15,16,3,-32,127,14,7
10,7,-25,73,41,4,5,-5
-8,-12,-16,-4,14,-12,4,-5
-26,-33,25,-47,-27,-44,-17,-15
41,19,-25,-15,13,67,-6,17
-57,-26,12,45,-18,-7,-7,1
-56,4,15,-37,-106,-9,25,3
27,3,-43,3,68,0,-4,-37
-13,1,-12,-60,-40,-16,-25,-18
-1,-5,11,-26,4,-24,-19,0
17,2,27,68,7,31,11,12
23,-2,-5,58,34,9,7,11
-12,-40,36,24,-14,-17,7,8
-21,17,56,38,22,6,13,-9
16,86,-2,-58,-2,18,14,20
48,2,-93,-81,-21,-36,-45,-10
-103,-84,-12,-12,-54,-56,-28,-43
-46,-30,-2,51,39,-28,-4,-13
31,4,24,-43,-40,28,9,15
-11,-8,20,-42,4,23,-2,-13
-32,-2,6,33,-38,19,-7,-7
3,-9,18,87,57,-36,11,3
5,-7,30,8,-8,1,6,11
80,23,-12,-30,3,-56,4,39
-12,23,-38,-64,-16,127,6,-1
-59,-21,-12,-22,2,-35,13,-8
-18,8,-13,34,-12,30,-9,-25
-6,-3,10,-2,38,-25,-18,-16
12,6,1,-61,-9,8,-16,-12
27,-1,-5,-21,-40,13,0,23
7,-19,-17,40,2,-9,1,11
13,-11,-28,70,30,15,14,8
-29,-2,20,-13,3,2,7,-5
-4,-17,15,-42,-27,-14,-2,5
59,13,2,-38,69,-12,-8,-16
-78,12,-4,8,4,4,-15,-18
-2,2,-10,32,-37,-20,-6,-5
0,-10,-10,61,-29,41,4,1
3,-23,10,-87,8,-59,-8,7
16,6,5,5,34,13,-5,19
27,12,2,41,-7,52,26,11
-29,-34,-13,88,-11,14,16,-12
-13,32,-88,-55,-16,64,-1,-15
49,73,47,-104,14,-7,-1,6
-43,-17,-26,-38,68,-11,-35,-15
-78,-30,38,6,-26,-18,-31,-60
16,-40,-1,56,1,7,4,4
37,0,-10,19,13,-21,2,0
-77,-17,-24,-38,-15,15,9,1
8,4,-12,11,66,6,7,18
36,30,36,48,11,5,10,16
11,13,27,-1,-48,-15,-3,-20
-32,-6,32,-7,19,1,-6,-5
4,-45,-28,-98,-88,-12,-19,-17
-10,-17,-126,-23,17,-26,-14,5
10,-15,28,53,-23,8,7,17
-12,-23,32,40,-15,4,10,-3
1,43,-3,23,19,-28,2,-9
53,60,9,-31,53,-13,4,19
-30,-17,20,-62,-55,-23,-27,17
-20,-1,-6,-3,71,51,16,-10
26,25,33,25,-2,-1,3,-29
-115,-15,-8,21,-37,25,3,-27
-10,-41,-66,-92,-22,-10,-9,10
38,-59,5,33,71,-29,-13,13
13,41,-14,59,43,-34,-5,5
34,32,-12,17,-61,-59,11,20
9,-14,41,-24,-26,30,9,3
-13,-4,-33,-64,30,-28,-13,2
-34,-24,-15,-45,-19,5,-4,5
2,-4,6,-6,-39,-3,2,-7
-2,13,-6,44,15,0,0,-7
-3,-11,10,0,1,-11,1,4
7,2,27,-41,21,-3,-2,4
2,4,-5,-36,18,12,-4,-2
-2,-16,-28,21,10,10,-6,-1
17,0,-15,35,0,-19,13,10
-19,-10,53,0,-53,-14,1,-2
16,18,-22,-43,-8,4,-5,-3
8,58,-2,-10,10,31,2,13
32,-16,11,-2,-31,-7,-6,-4
35,-12,46,45,19,-21,-8,5
-40,-43,-54,-11,3,18,9,-14
-81,-14,4,-42,-5,-8,-19,-31
-8,22,36,-6,9,-15,-18,-22
-5,-16,-16,13,29,-2,-11,-12
22,-10,25,61,-62,-46,0,14
38,11,-8,25,48,29,7,3
-50,13,9,-65,-6,37,3,9
11,-6,6,-73,-18,-8,-2,9
9,8,-4,20,-25,9,8,7
8,12,5,52,-49,-18,-2,2
12,9,-13,-24,-38,-11,12,13
-4,-12,2,-16,53,19,-6,-3
16,-19,15,-7,46,-29,-8,1
-16,-6,-75,1,-65,-63,-11,0
-11,-2,22,66,22,127,13,-14
-14,3,-28,63,40,-28,-16,-10
16,-9,54,-60,-45,17,14,27
64,10,7,-48,-46,12,7,17
-26,57,25,96,112,-45,7,-8
-113,-57,-106,-73,-128,-19,-36,-53
0,-13,1,-5,37,116,8,-3
52,5,20,-44,7,-30,-7,20
77,0,2,-15,-28,42,16,31
-68,10,4,18,52,35,5,-32
-79,13,32,26,43,-27,-6,-42
12,-3,-6,-50,-6,-19,-16,-14
26,33,10,-57,-85,-22,-3,23
15,-19,13,-1,77,2,-3,13
-2,-29,-101,-10,-42,-4,13,16
-13,-2,-7,20,2,2,12,13
15,5,19,1,-19,-6,-6,-24
-38,-2,14,-38,14,29,-21,-19
-10,-16,-20,-29,10,-24,-18,-18
-7,-9,9,29,24,-19,7,5
10,0,-2,20,-74,-2,14,12
4,0,14,25,9,36,8,0
7,4,27,-9,4,-128,-36,2
33,-6,22,-2,44,127,51,12
-14,68,62,3,-123,-27,13,30
-8,0,-128,-82,31,-82,-11,-19
-57,-4,9,-18,24,13,-31,-71
-62,-63,90,-95,0,-28,-49,-51
11,-46,-61,3,-85,-20,-7,16
15,-5,-15,41,35,16,12,10
17,10,32,51,33,-6,17,15
18,15,-19,28,51,-64,-1,13
56,37,36,-45,73,127,26,25
-44,3,33,-60,-108,-18,-4,-7
-59,-83,-128,-15,-47,-14,-13,-38
18,1,-5,19,12,-8,0,-11
24,15,9,17,14,-2,1,3
10,4,1,-51,21,-2,-17,-2
10,-9,3,-20,40,2,-4,0
-10,0,-8,48,7,3,8,-5
-3,16,16,38,-13,-5,12,-4
-32,-46,-2,3,29,-63,-9,25
34,20,10,65,51,127,52,55
19,9,58,4,-19,62,18,-12
19,77,-35,-79,-56,-79,-40,-59
-128,-7,-79,-49,-70,-59,-73,-92
8,-69,-52,-37,-43,-12,-12,7
28,-16,38,-1,32,2,10,32
22,3,31,9,38,15,18,28
11,4,16,49,22,8,16,15
4,2,9,28,-10,0,9,5
0,0,23,38,15,10,2,5
26,-3,3,-39,17,-66,-1,15
2,19,-25,29,89,89,6,10
8,36,33,18,-62,-22,18,0
-37,7,9,-25,-128,-25,-17,-10
33,-21,-64,-35,50,71,-12,-32
-75,-46,-22,-61,11,-40,-20,-19
22,-13,16,18,8,-13,-2,-1
23,3,18,43,4,-3,9,9
15,12,5,19,-15,-18,5,6
10,-1,0,12,40,-4,-4,5
3,-7,6,-27,-14,9,-6,10
8,15,16,14,11,60,24,14
34,35,42,-27,-20,-79,2,22
-31,-27,-26,27,-61,49,-11,-16
20,0,25,40,77,88,-6,-27
-128,24,0,-85,-22,-27,-22,-62
4,29,-78,-13,-2,4,0,-3
-15,-30,-18,-49,-23,-1,-9,-15
-2,-31,-52,31,9,-5,-1,6
15,-3,27,-18,-103,3,2,19
10,-4,17,-6,-6,-2,-7,8
4,-1,8,24,63,10,5,6
-2,-10,0,39,24,-8,6,-1
-9,7,7,39,31,-4,5,0
15,31,10,10,-46,-12,0,10
24,-5,-27,-45,-2,15,-6,7
-25,-25,9,-7,15,-22,-13,-12
-14,4,-3,29,32,44,-3,-11
-4,0,24,-3,-70,-6,-1,-9
21,27,31,2,31,-18,19,26
47,-23,-44,-30,-12,9,4,15
-77,-2,7,15,1,-12,-6,-7
-62,4,-9,32,18,-5,-5,-29
3,7,-5,10,-3,-16,-10,-31
-53,-48,46,-56,-68,-14,-21,-35
13,5,-58,-21,54,5,-14,-10
21,4,-18,-21,-6,-4,-1,16
-2,-1,-1,74,43,15,11,7
13,-4,-7,27,3,3,5,12
20,4,19,11,-5,-3,-2,6
-7,2,10,-14,9,-38,2,15
0,-6,37,-4,-6,0,10,2
23,40,-40,20,-21,-38,10,-5
11,36,-19,37,23,39,3,3
-27,-21,29,-75,-15,-1,-25,-16
5,8,34,-36,-11,-7,-12,2
-13,-4,4,10,10,2,-10,-12
-9,-2,-4,18,-54,-7,8,-4
-4,-21,-41,30,14,2,9,4
44,4,20,28,5,-23,-2,-1
-35,-3,-15,-40,10,-32,-26,-15
-28,-18,36,6,-14,70,1,-4
29,23,-11,23,-39,14,14,15
-12,30,36,30,17,8,6,-6
-1,-22,-34,-24,6,-81,-22,-12
2,-38,-5,19,8,69,14,18
8,42,66,14,49,-23,1,5
22,46,-20,19,-41,4,-1,11
-14,-39,-112,-42,2,-40,-21,-31
-30,-5,75,-32,-51,3,-16,-13
-30,-56,-70,-58,91,-50,-10,-8
14,2,-2,21,-87,30,9,12
35,37,52,-9,9,-3,1,1
41,47,-8,44,1,26,5,1
21,-31,-72,-28,15,-1,-7,23
-10,-28,-4,-7,62,-23,-5,17
8,-17,47,-6,-58,-24,5,-20
-47,18,14,41,98,94,16,-25
-89,13,-67,-55,-63,-5,0,-46
37,24,46,-38,-42,-19,-12,-13
17,-9,-32,-34,-2,-17,-13,12
-13,-26,22,-2,27,-32,2,17
54,18,12,71,14,44,18,24
-46,13,-1,39,9,-5,-12,1
12,16,-8,-13,43,2,4,7
30,5,8,-42,-77,59,3,1
-41,-48,6,-11,11,-2,-9,-13
12,-14,-24,-13,-37,-43,-14,-10
3,-1,-1,10,14,-47,4,-4
40,7,19,-7,-17,30,6,15
-9,18,40,10,81,31,-2,2
-66,13,-21,2,-19,-15,2,-6
32,1,-39,-4,-16,-5,10,6
12,-49,23,-18,-25,25,4,17
-26,17,15,-8,63,-51,-20,-26
7,52,44,10,-71,1,-1,-19
-3,-1,-107,-23,-44,6,-1,-2
-38,-18,-6,18,0,-1,-4,-15
2,-37,-52,-58,32,-40,-18,-14
12,-23,-10,15,8,-26,-11,-2
3,-5,21,-25,-13,-5,12,11
53,1,6,8,-18,2,7,17
20,18,27,55,63,-37,-1,-10
-128,7,53,-11,-15,53,-1,-22
0,3,-52,-10,11,-7,-3,6
24,-13,-51,-24,15,8,-19,4
15,-1,-6,-47,-46,-24,-2,17
19,5,38,66,33,-6,10,-5
-29,-27,-37,21,91,9,-2,-6
-35,-53,-3,-60,-79,-82,-7,10
21,11,30,32,66,21,13,12
-3,62,85,48,-53,-16,9,4
45,32,-25,-18,-5,10,7,2
14,-23,-85,18,28,10,-30,-18
-95,-5,31,-50,18,-3,-12,-14
-28,-32,-5,7,-55,-38,-14,3
21,-7,7,-46,-77,4,7,16
25,-9,-1,67,63,16,23,17
8,22,41,60,33,18,-9,-24
-8,11,3,-1,32,22,-8,-6
7,-19,-6,-46,11,45,12,-2
14,-16,-35,-16,-2,-17,7,12
-4,4,1,6,-36,-21,-2,-3
5,-7,15,41,43,-24,-1,-2
14,-1,7,1,27,8,4,16
49,1,-21,-21,-56,11,2,21
-60,16,16,11,11,3,-5,-26
-83,13,64,19,-36,-32,-2,-12
49,-27,-128,0,35,-1,5,3
41,43,-38,-23,0,56,-7,7
5,-10,27,-35,30,-33,-8,-7
-12,-27,3,-31,-9,1,-19,-14
10,7,4,20,-33,-23,8,0
-6,4,-6,-9,-58,0,-1,2
6,8,20,31,33,-2,8,10
25,4,28,-6,7,-9,-2,14
-1,-21,-10,37,113,-46,-10,6
-17,8,0,47,-21,8,31,16
8,59,13,-1,-82,-42,4,-7
4,-26,-69,-69,56,-14,-15,-20
-52,-39,19,-110,-128,-40,-32,-24
-23,-25,-34,-31,9,-19,-4,3
20,10,4,120,72,-16,4,-1
-39,2,16,16,-15,67,20,2
15,9,26,-2,0,-42,1,10
41,6,-35,-30,-8,-9,6,18
-16,20,5,-13,-4,-5,-7,-16
-50,-28,11,49,103,-19,-18,-36
25,-3,10,8,-108,-21,-19,5
26,1,-21,-54,-12,-30,9,2
-20,30,45,-17,30,43,14,12
35,9,0,8,65,-41,-6,9
-26,-58,-10,40,-19,-3,11,17
-8,11,-2,24,-3,44,5,-21
-23,80,-27,-45,37,16,-11,-23
-19,-20,-6,-60,-10,5,-27,-20
-7,-65,26,-39,-52,-12,-19,-7
10,8,10,81,26,-42,11,4
14,23,24,31,48,66,7,13
38,3,9,1,32,-13,-8,21
14,28,5,-12,-55,73,28,17
4,-7,-15,-2,-38,-34,-7,-21
-39,-34,27,24,1,-29,-5,-24
-45,-8,-4,34,26,-7,-4,0
3,-16,2,4,31,-90,-21,11
53,1,-54,-60,-45,71,14,21
-67,13,60,12,35,-79,-14,-31
-8,25,-103,43,43,92,18,-8
18,19,-22,-9,-29,78,12,21
11,-58,13,-64,-60,-24,-15,15
-4,-1,-22,17,39,-30,-10,-5
29,36,6,13,7,15,-6,-34
-86,0,-7,15,-6,60,-2,-23
-6,-22,9,-3,28,9,1,-2
-7,-17,-20,-29,-18,-26,5,0
19,20,17,-23,29,24,10,17
21,26,11,55,-83,-12,-1,9
23,18,12,23,-20,-5,0,2
-13,-74,-49,24,84,-39,0,-9
-11,29,7,-20,-5,32,-1,-1
38,49,16,-26,31,-24,1,7
-4,-64,-86,-28,-43,24,-10,-20
-28,-16,8,32,-18,-25,-9,-13
12,15,9,-7,-4,-15,-2,5
47,3,11,-3,25,11,5,16
-68,-28,-14,14,11,6,5,10
-10,-8,40,44,9,-83,1,-24
-14,3,2,72,1,127,8,-20
25,-9,-47,-40,3,-7,-9,-6
29,49,-9,-41,-8,-60,4,23
5,53,48,-50,47,34,-5,8
1,-3,-50,-5,-53,-11,-5,2
-59,-55,-9,0,-51,-42,-13,-17
11,-20,-26,39,25,-25,-5,-13
-73,-35,-3,-42,-3,41,0,-22
24,-13,20,18,40,-61,0,14
14,36,9,27,10,8,9,11
43,18,59,15,7,-56,22,27
35,26,-128,14,-19,19,-20,-10
-72,-23,-31,-54,24,47,-4,-44
-68,-6,7,-28,6,-13,1,-20
16,1,14,-31,-67,-37,-6,2
23,11,10,38,38,19,8,9
27,32,-60,7,1,-8,3,34
-4,-48,-5,-2,22,-126,-28,-17
-10,-28,42,-23,-128,52,-2,6
4,22,4,23,42,-17,2,1
-40,19,7,13,39,-8,9,-31
15,-23,6,9,-4,-25,7,11
31,-21,-30,-36,0,-4,-7,30
12,3,-29,15,-28,-40,-2,8
-38,59,81,20,33,71,-7,-42
-23,6,19,-5,-4,5,-8,-39
-6,-32,-35,-30,-74,31,-4,-2
4,-33,-33,-45,41,67,-3,13
17,2,18,-17,-50,-7,-1,17
22,-25,9,1,-32,-46,12,9
-25,4,-10,51,-39,-47,0,-5
29,37,-8,-2,12,51,7,9
-10,60,68,-20,-4,-41,-14,7
-5,21,-73,-25,-9,-6,-13,-11
-29,-75,35,-35,-29,-23,-8,-46
-50,-59,-50,-11,7,-14,-13,-22
31,-8,-11,7,57,4,4,23
59,38,31,3,-45,-22,0,43
-36,15,23,-23,-29,-31,-15,-14
11,15,-8,19,72,38,10,-18
29,37,44,14,-17,-15,-2,-7
-19,4,-10,-10,-6,36,-1,10
-6,-45,-38,-26,-27,-18,-13,8
-20,-45,20,14,127,29,18,-4
36,63,-1,41,-26,-4,10,7
10,51,-1,8,39,-32,13,13
-23,-49,38,-36,-43,58,3,3
-14,-69,-108,-29,-9,14,-15,-14
-26,11,16,-33,-25,-13,-13,-8
42,39,-26,6,62,-6,2,-3
-2,-43,-20,40,-14,-16,-9,-15
-27,-1,45,-2,3,-4,-6,20
6,24,-37,-35,10,50,6,-21
6,28,-20,4,50,-33,2,-4
11,-13,-1,15,-23,24,2,16
9,0,50,49,-39,-30,9,-1
-28,-3,-32,-18,-12,-15,13,3
-37,-27,-8,-29,49,24,-11,-13
15,19,10,18,-22,-102,-17,10
23,50,-15,6,-8,127,32,4
-34,-15,48,-16,-54,-25,-31,-35
-6,-95,-123,-49,35,-19,-19,-8
-1,1,9,1,-10,-18,2,15
1,7,-7,2,16,-20,6,11
25,41,17,63,60,24,15,4
8,43,-10,-23,-58,101,8,-2
-13,3,17,-5,30,10,-7,-2
-8,-3,-20,-27,-21,-17,-9,3
2,-48,-52,-8,21,1,4,21
10,-24,29,16,-12,-10,6,13
-37,30,20,30,20,-16,-15,-41
35,8,67,13,-9,106,13,-21
-62,3,-57,-41,22,-26,-14,5
-56,-12,-69,-40,-22,76,1,-6
26,28,58,14,4,29,2,-14
-11,-48,-101,20,-7,-14,-7,-5
13,-11,62,0,62,-29,-7,15
32,-19,15,13,-4,82,7,23
-13,26,-6,-10,-27,-43,-13,-11
-2,11,-15,17,-6,-21,-4,-15
-8,-18,6,0,35,-2,-3,-11
3,9,34,36,29,-20,-4,8
33,-4,-27,-33,-13,10,14,22
-17,-11,-13,17,44,-6,-7,-14
20,-17,10,-10,-1,112,12,-15
-17,23,22,7,10,-6,-10,-12
-18,-38,-47,-44,-108,-27,-8,-14
12,42,-42,-1,52,0,7,15
1,-18,24,17,-32,-30,-10,5
14,-10,23,13,37,27,4,2
-21,19,39,44,-1,-47,-8,8
19,-9,-38,-5,15,67,3,5
2,-42,34,5,91,42,-6,-17
-79,10,-2,-44,-57,26,5,-11
13,3,-13,-34,-91,-7,-9,-14
42,-2,3,29,18,-24,0,-2
-33,10,16,-14,-4,3,-1,6
4,-13,-28,10,-2,-5,-5,2
38,21,37,-1,47,-24,11,26
0,-27,-23,-1,-39,11,5,1
-42,-20,-37,57,55,-70,-24,-19
37,17,5,-11,-36,82,33,-1
-11,-13,8,-83,-62,-18,-24,-11
1,0,0,50,127,-41,-11,1
8,-9,32,8,-47,29,17,6
5,41,21,27,-27,-11,1,2
2,-15,-45,1,27,-30,-11,10
19,-22,-4,-42,-21,-12,0,20
35,14,-7,-33,34,-84,-12,-12
-81,30,10,24,-54,93,-10,-32
2,-30,17,-21,-20,42,-5,-15
2,-37,-17,5,-49,-99,-14,5
15,-1,-3,-2,60,29,-1,22
34,22,8,-2,-60,13,10,19
55,-1,28,30,-33,-78,15,15
-68,-21,-35,45,67,-3,11,-12
-17,17,17,-48,1,2,-25,-41
13,29,27,6,-23,-16,-22,-6
-17,-35,-71,-27,-68,-21,-16,-4
8,-32,-52,53,85,5,12,7
53,-12,22,32,11,-86,2,19
-8,59,-35,-4,-65,108,26,26
-59,-1,-40,-55,-35,-53,-28,-33
7,-18,75,6,5,-21,-16,-27
-4,-20,-14,-15,9,-24,-9,3
21,-8,-6,-16,23,21,10,8
29,-10,3,20,8,25,3,-5
-36,-10,5,-7,56,-16,-7,12
25,-2,-23,4,0,-6,-6,13
-5,-1,39,77,4,-19,0,1
-90,15,-28,1,97,-36,9,-24
24,12,-19,-16,-46,84,-3,-4
38,40,-6,-42,-22,-22,-2,13
14,-35,-74,-34,-13,-25,-22,-11
-82,-27,16,26,35,-100,-18,-22
-5,-3,1,34,21,50,11,16
55,21,31,8,-2,18,25,43
-14,6,-20,12,101,-8,-14,-17
-62,-16,8,-52,-62,5,-16,-36
16,8,23,37,39,7,-6,-10
34,-10,-12,-6,-30,-67,-9,-14
21,-27,-42,-27,-40,59,13,52
25,9,-22,-15,27,-72,-22,-8
-107,-24,-43,-9,-38,12,-7,-48
4,-5,11,45,52,5,1,-11
2,-18,18,-3,16,-73,0,7
25,-5,69,24,-21,55,9,19
47,16,-52,-20,-43,-40,3,23
20,86,-52,-9,-18,104,17,15
-42,-6,22,-23,-9,-6,-15,-21
32,-60,17,-8,-62,-26,-6,-8
-22,-41,-48,4,58,-8,-7,-16
10,-3,21,-15,49,-19,10,22
11,43,75,34,46,-29,13,16
-4,-3,-38,38,-17,71,3,-26
8,-38,-28,-58,-86,-52,-25,-43
-38,-20,48,9,34,77,7,10
11,4,-1,-6,-37,25,1,22
42,28,19,-5,3,-25,7,-2
48,-11,2,64,15,17,-15,7
-12,65,-31,21,75,35,15,-3
-51,67,3,-65,-62,44,-3,-12
-12,-97,33,-74,-31,-64,-39,-16
-8,-33,-39,2,24,11,4,1
-17,12,20,31,50,-40,-1,-3
37,41,57,49,-14,127,34,7
34,-11,-9,3,8,38,8,23
-26,-83,-51,-86,-8,-46,-5,2
1,-6,-20,19,-31,-46,-5,-6
29,92,43,89,37,116,18,32
-35,23,42,28,45,126,6,-12
40,24,-23,-66,56,-54,-47,-35
-68,-58,-51,-79,-44,-25,-44,-42
12,-7,1,0,-26,-6,13,5
37,-18,28,71,33,-16,20,27
-12,30,-7,44,9,-32,20,11
-22,-31,48,-7,-22,31,-3,-8
52,-3,-46,-31,16,-43,-20,11
13,51,34,53,13,13,3,1
-65,-39,-45,-51,-102,127,45,-6
-56,-71,-62,-17,18,-39,-16,-15
54,26,34,-40,-7,-49,-15,-31
25,55,54,-35,25,-4,-15,14
-26,5,-17,38,22,-15,-9,-17
38,2,26,63,6,7,1,6
-12,-20,-14,5,-56,-128,0,6
2,-6,2,-15,-11,47,8,12
11,12,98,-9,-31,-22,-13,6
2,43,-107,29,127,-58,0,6
27,-50,-51,16,-98,95,19,22
-17,-47,-46,-44,-77,-36,-4,0
-41,29,34,-35,69,34,-14,-31
-31,-10,6,-42,11,-115,-50,-44
63,5,10,39,34,115,12,9
-34,40,28,62,26,104,41,18
-35,21,34,-9,83,57,-7,-26
12,-39,-41,-39,-41,-53,-4,15
-19,-29,-14,-44,-128,-40,-12,0
4,23,32,-11,13,-7,-6,-8
4,24,45,40,1,-23,-7,-3
7,-8,-43,29,15,34,8,7
7,3,-31,-31,26,-10,2,9
10,-26,76,-23,15,3,-2,12
-7,-31,-92,14,-49,-33,1,18
9,9,-40,50,-61,-36,-4,-6
-33,54,77,30,104,33,-2,-1
40,14,-14,-116,-79,19,-7,-25
-63,-5,99,-22,77,-40,-17,-25
-17,-38,-94,24,-9,-21,-6,-7
11,1,-12,12,19,47,22,10
17,-8,25,-8,-61,-123,-14,6
49,2,15,11,-61,34,2,27
29,11,15,-7,-34,8,-3,-8
-84,25,26,34,0,-82,3,-16
-27,-69,-48,-3,31,12,-19,-4
33,21,-6,-5,-9,77,16,9
21,40,-24,-33,-25,5,7,10
3,-23,-43,-15,16,-18,-23,5
-28,-15,44,31,-5,-4,3,1
-23,-14,-3,18,-15,-10,6,-2
34,12,17,36,38,-23,-6,11
-8,3,-4,5,34,65,20,4
8,-6,-25,-28,24,73,-7,-5
-44,-17,-6,-10,-54,-8,-8,-32
19,11,2,41,-18,-6,-4,-30
-7,-6,2,22,77,-75,-7,2
0,12,72,22,-50,14,13,31
-13,-17,-58,-45,-47,-25,-1,10
-35,-17,-24,-29,46,-68,-34,-19
-15,-15,-48,-3,-46,104,21,-15
26,31,41,23,-26,26,1,14
28,56,73,-8,51,8,11,11
15,-38,-63,-2,14,-68,-19,3
2,-46,-57,4,82,-48,-21,-23
-67,-6,17,37,-12,80,25,-7
51,14,16,-2,-79,41,24,8
30,65,0,-67,-57,-31,-16,10
9,-44,-26,-29,-26,-15,-1,14
-57,-57,-79,49,61,105,14,-4
8,41,71,14,11,-66,2,-19
-27,4,32,12,-11,28,-14,-31
4,-26,-29,-70,35,-20,-18,-2
20,11,11,13,-43,33,1,18
2,0,-10,32,110,8,2,22
74,39,35,26,-29,52,23,-8
-104,18,60,5,-82,6,-5,-9
5,-21,-20,-2,61,-83,-12,5
31,12,-38,2,15,60,8,11
49,10,-19,-13,-19,0,-4,-7
16,-22,40,19,13,11,4,-2
-122,-48,-4,-15,5,-49,-11,-28
-5,-4,-4,-2,-27,6,-28,-12
20,-6,18,3,61,15,8,16
25,49,-38,5,2,5,2,8
20,33,34,15,-41,85,18,10
-21,-68,-110,-77,21,32,-14,-12
-16,-62,32,-40,-120,-38,-9,4
15,23,14,20,1,-28,1,4
13,26,27,43,58,-77,0,5
7,-11,-5,59,38,88,27,-4
10,9,-38,12,-73,-46,-4,1
-22,12,9,-50,2,-45,-23,-7
-1,0,73,-63,-35,-4,-15,-7
-1,-42,-100,13,43,-52,-7,-15
-8,9,4,40,15,45,27,1
23,46,5,38,53,-47,-2,0
19,-47,-4,-119,-71,-21,-17,-14
57,-22,-26,5,-6,-40,1,26
-70,26,24,56,47,-27,19,0
-62,-13,21,37,29,-2,6,-15
54,7,42,20,9,-86,-35,-7
-3,-25,-16,-23,-2,127,27,-1
80,83,-22,-58,-88,-45,1,4
-61,19,10,-35,-47,-37,-17,-34
-5,-21,-44,24,32,-28,5,10
-1,-13,5,20,7,-25,0,18
-3,-60,6,-23,63,6,-3,6
18,6,37,25,2,53,13,10
-8,33,1,55,7,26,15,2
3,35,17,9,-10,-2,-8,-3
2,-20,2,-35,-34,-34,-8,12
4,-17,-12,-43,52,-5,-7,-2
-22,-11,17,21,-29,-8,3,5
24,21,11,52,-26,31,5,-10
-2,25,8,14,-53,-47,-6,-38
8,-42,-24,-33,-8,117,9,6
20,0,32,-20,-6,127,26,42
-55,34,-16,-6,25,-41,-7,0
-32,13,-20,-2,-10,-25,-14,-51
-38,-30,53,16,26,-24,-15,-22
9,-30,-102,-32,2,-17,-4,2
33,37,9,-16,28,-32,13,23
27,-15,20,-51,-128,-68,-13,17
1,9,14,80,127,73,14,-3
-7,5,-6,7,53,-76,-1,-1
10,-15,-3,-37,-128,30,8,12
-9,-3,-23,13,105,-20,-3,5
39,54,39,-2,-56,16,-11,-10
-13,-50,-71,-13,28,2,-16,-25
-7,-14,13,28,14,-3,8,-1
4,-11,0,-24,-13,-88,-16,9
10,11,15,-24,26,124,17,12
-4,-8,-19,-2,28,15,12,9
-42,-16,-20,33,32,-32,2,-8
33,6,8,15,4,-14,0,-16
20,1,12,33,19,-30,7,11
-41,-16,28,-42,-118,-27,-23,-18
-72,6,19,33,107,113,19,-8
32,2,-14,14,-128,-81,8,25
51,55,31,65,11,62,21,-3
-56,55,23,-76,-31,-14,-25,-10
-28,-61,-67,-70,7,-89,-50,-29
11,-25,-11,-23,64,86,14,12
21,1,18,70,20,35,27,16
21,4,-13,15,-16,6,7,-6
-15,-1,33,-16,-15,10,2,-4
0,1,12,-26,49,-9,-5,10
14,-45,3,75,-17,-44,-1,39
6,-18,-4,66,50,-31,22,-17
75,127,8,22,-18,127,39,-52
-84,56,14,-128,-26,-74,-39,-19
-77,-128,-128,-128,-86,-70,-53,-21
10,-38,41,1,-36,-26,-8,11
19,32,28,62,-56,0,23,18
-38,12,15,40,13,13,14,-1
37,3,12,2,37,12,-7,8
11,-8,-2,-10,83,-15,-14,4
-2,4,9,-2,-36,64,21,7
8,8,-1,29,-26,-53,22,32
-6,-28,7,33,12,119,10,-5
-62,-10,-39,-21,-38,-56,-19,-31
51,2,38,-24,8,-6,-20,-12
27,51,-6,0,47,-70,-13,-2
-42,20,92,22,-44,127,31,6
7,-7,-12,30,54,120,14,2
53,37,-99,-43,-15,-14,7,28
-32,-62,-44,-82,13,-51,-33,-18
-32,-21,45,0,-73,-63,-22,-18
9,-9,31,32,39,-38,4,-5
-13,-2,34,41,-37,1,10,12
22,3,-11,-15,-27,-5,-13,-7
41,23,16,18,68,113,8,32
30,32,26,33,-16,61,6,-11
-23,-20,-15,-49,-38,-40,14,-3
-48,-32,25,-9,-17,-21,2,-31
-2,34,33,10,110,-14,-9,-14
13,-25,-50,-60,-58,-3,-31,-17
11,-16,5,-3,29,-76,-17,4
33,-4,71,68,16,49,33,28
20,48,-52,32,-27,1,8,25
5,-7,-32,-13,-24,-5,23,35
-44,-17,-10,-72,17,-4,-58,-40
11,13,25,17,65,-68,-18,-39
-11,-31,-15,10,-115,-53,7,18
32,54,91,29,58,107,35,0
19,34,100,-44,8,-45,-20,-9
-128,-69,-111,-93,-59,-33,-24,-18
20,-45,-17,13,-41,-21,5,21
59,23,6,64,-18,-37,11,20
-19,46,48,48,127,5,7,-21
-16,16,-75,-63,7,15,7,-7
-25,-51,-26,-28,24,-22,-33,-16
12,-11,9,-33,-128,-35,-13,3
12,15,11,34,16,35,15,8
23,16,20,53,27,-35,12,16
-12,-25,-16,-32,18,33,-9,-2
-4,-1,1,-8,5,24,-1,4
12,17,0,20,28,27,20,3
-5,26,3,2,-32,-15,-5,-4
2,-32,68,-8,-28,-128,-28,-8
42,-30,-114,-5,35,127,16,-17
-35,41,-13,-26,11,32,2,-7
-96,-43,-24,-37,-4,-36,-34,-20
11,32,50,22,25,0,-4,-9
-8,-21,-38,-24,-89,-20,7,27
10,-22,-2,10,-45,-16,-7,-6
8,-17,-29,-5,51,-51,-20,-14
-4,-3,37,44,41,12,8,6
-47,-68,-47,-21,-27,-128,3,17
28,-13,50,58,-35,127,36,27
94,127,9,12,-5,-36,14,3
-83,48,-14,-100,23,-58,-53,-73
-30,-100,-128,-78,32,-19,-31,-30
-68,-29,14,39,-25,8,8,6
35,-14,9,44,-43,-84,8,20
13,-7,23,22,6,-26,-1,13
24,15,38,20,42,59,-4,-2
9,13,31,17,5,-36,3,4
0,9,-58,-19,-44,75,7,5
-40,-19,-39,-3,-8,-29,8,-5
-19,-29,-22,-90,66,48,-6,-4
9,-11,-24,-40,-70,-33,-35,-32
29,2,34,43,-14,6,4,1
-28,3,-1,4,0,-33,-1,-2
-6,-1,2,36,40,63,8,2
8,-3,30,-8,24,-66,-5,2
41,9,1,-37,25,93,3,13
16,33,1,38,92,25,12,8
-51,-15,-33,8,-128,-8,2,17
15,-19,-20,-9,-3,-49,-17,-13
-28,26,37,-53,10,-28,-24,-40
-26,-59,23,-3,52,127,-7,-9
49,32,-35,51,12,-90,5,-1
-5,107,33,16,44,95,25,-16
7,52,67,3,-32,-48,-29,-27
-72,-128,-128,-128,31,1,-34,0
11,-44,63,-7,51,-103,-9,19
18,1,1,59,-79,108,36,10
24,14,19,68,-52,11,17,11
9,7,6,14,3,9,6,6
14,10,17,-7,34,-15,-8,8
17,-5,25,-37,25,-6,-10,3
-33,-15,-64,14,38,32,3,-8
-33,30,9,28,21,-19,11,6
29,-9,10,4,-74,-81,-14,-7
-8,-2,4,-25,15,105,5,-18
16,27,10,-29,2,-30,-18,0
9,-16,-9,18,71,-97,-30,-13
-30,-13,-21,33,-69,112,21,11
2,-3,-16,19,4,-7,10,1
21,34,45,-39,-37,-7,4,8
22,23,54,-23,-61,-13,-11,-21
-51,-25,-58,-15,54,-17,-7,-15
7,-5,-10,37,-11,-23,-1,5
17,-25,-13,-4,-20,-54,-8,11
6,-13,-2,-58,-19,15,-14,-4
12,9,17,9,46,33,1,10
34,20,14,55,52,-38,12,21
-43,-16,-8,40,26,43,15,8
37,5,-9,6,-6,2,8,-18
38,31,54,-34,-42,29,1,-4
-90,-4,-53,-50,51,-22,-18,-36
38,31,54,-34,-42,29,1,-4
-90,-4,-53,-50,51,-22,-18,-36
6,13,10,11,-49,6,-5,12
25,-31,10,18,-122,-1,6,1
6,13,10,11,-49,6,-5,12
25,-31,10,18,-122,-1,6,1
7,1,-14,-8,15,6,9,6
-2,33,3,-36,59,-32,-15,8
