Channel_1,Channel_2,Channel_3,Channel_4,Channel_5,Channel_6,Channel_7,Channel_8
-113,-47,-6,-35,25,-1,-47,-40
0,-10,-55,-48,-59,-40,-2,23
45,-52,-43,-8,-2,-12,7,1
-45,-11,50,34,-48,-22,1,-28
-55,47,64,-33,8,52,-7,-18
9,-82,-128,-13,-25,15,-9,3
-4,7,30,-23,-1,-35,7,1
66,42,37,32,-7,-5,7,23
80,22,11,27,24,-3,5,34
-98,33,6,24,44,0,0,-8
-57,1,1,-30,-71,0,-7,-40
0,-42,-44,-9,-15,-26,-21,-33
-19,70,77,50,-45,-22,-2,-6
72,26,-6,19,17,81,31,30
5,-41,-103,-53,7,-59,-22,-11
-128,-26,46,8,-52,-15,-29,-64
-30,-54,8,11,2,6,-23,-21
43,42,31,-37,17,58,33,21
16,52,-8,5,7,36,18,33
42,-29,-24,11,46,18,-11,-5
-32,6,12,11,-44,-47,7,16
-73,-32,17,46,12,26,13,-55
-1,16,41,-5,31,-23,-3,-19
33,111,21,-1,-27,-59,-24,4
21,-11,-39,-23,-36,47,-9,7
7,-22,34,-11,-29,-35,-7,11
-15,-10,-4,6,-49,15,-3,-9
-10,-32,9,-27,11,-3,-17,-40
-64,-63,-11,10,-6,74,16,-11
27,69,38,-1,50,-23,1,27
83,87,30,11,-30,-36,-12,47
60,-34,-126,30,36,-38,-11,2
-128,-22,-33,-40,-34,28,7,-55
1,-28,49,-43,2,0,-19,-43
38,-36,74,-23,-22,90,17,26
11,-8,-53,-30,-60,-70,-12,3
-128,73,-48,4,5,7,16,-18
-48,-41,73,-27,-21,-30,-30,-52
42,2,-5,-28,-1,-35,-29,-24
19,-26,-4,23,53,12,0,19
19,-10,20,19,72,-4,16,26
5,22,6,3,-84,-118,-2,2
20,2,-3,-6,1,-15,-3,13
4,2,26,-16,2,11,-8,-7
0,-1,37,35,36,-76,-11,-8
-2,-31,-10,5,-1,66,9,-4
19,-2,21,-27,-72,-84,2,20
106,5,8,88,79,98,30,49
65,4,13,-9,-9,-15,-1,24
15,-28,-84,18,41,-5,7,28
-24,-8,20,-14,-8,-5,13,2
-57,-15,11,35,25,-3,13,-6
-21,-14,69,15,-12,-54,-11,-10
94,79,-45,-36,45,122,16,10
-31,-28,-28,-6,-39,8,8,31
-47,-82,49,-12,-7,-13,-3,-31
39,61,1,11,51,-128,-4,-10
15,92,-13,-7,-55,48,-17,-9
9,3,-17,-52,-70,-77,-11,6
30,-43,34,45,26,-20,-16,10
-17,-3,10,-61,-46,-29,23,4
-28,-15,-8,14,-40,1,5,-1
-4,-24,-38,-11,-6,-9,-6,-14
14,7,36,36,11,-41,-15,12
-35,-69,44,-30,90,95,-1,-6
41,54,24,45,-36,1,21,0
15,75,-36,18,-12,-19,-1,-3
-5,-60,-48,-42,-55,-38,-30,-26
-20,-17,-24,-16,63,-15,-14,-2
0,6,41,16,16,-56,-14,3
-17,-39,-25,18,27,127,53,6
-13,16,-17,-13,5,0,2,-19
14,36,31,-27,-47,-25,-25,-10
4,-30,-19,-58,-12,-16,-34,-22
66,30,32,24,42,-112,16,57
60,-41,-63,33,21,127,6,13
-128,-33,-11,-23,21,102,14,-45
-54,-27,23,19,65,-99,-31,-24
49,35,12,-21,-128,50,30,43
32,37,17,21,23,16,-10,7
28,-66,-76,-6,11,-24,-14,-28
-53,2,78,-10,21,-22,0,-10
9,29,9,3,11,-12,-10,-15
38,6,32,72,56,4,15,32
54,55,28,45,-72,-22,4,16
-75,-18,-52,-50,-1,19,3,-27
1,-48,12,-49,-18,11,-6,-14
21,-27,-42,28,28,22,-2,12
-35,-21,-10,25,27,-49,-5,-4
-19,17,26,-19,-44,22,15,-1
41,19,3,16,49,32,-2,-8
20,25,-4,9,-27,-51,-1,6
33,15,18,-6,-58,-64,-7,8
-17,-6,-32,-29,3,-79,-21,-5
-73,-56,-46,-19,2,100,10,-1
17,-59,30,29,-12,5,-4,-22
36,3,-51,9,15,-43,-10,-29
-5,69,11,0,-39,17,34,27
45,74,127,-17,9,-30,-17,12
-32,-23,-128,-36,12,-36,-35,7
-10,-20,-27,-31,16,-22,-8,-21
-2,-64,-44,3,-41,-15,3,-4
-22,-19,3,-4,-14,-2,2,-6
113,58,37,19,13,23,8,25
-60,3,-39,-14,12,-7,0,0
-37,-2,0,-16,7,-12,-14,-25
-5,-10,44,34,10,32,3,-13
14,5,-8,-24,8,-10,3,9
-15,14,-37,3,0,-42,2,7
45,-112,-67,-14,-9,-47,-18,-20
-43,25,33,42,-18,84,8,0
-1,54,20,-15,-23,-6,7,2
25,30,16,-10,2,-9,3,6
11,-29,-45,-27,58,-28,-14,11
5,-43,30,-7,-61,10,-5,1
-26,-40,-79,33,32,-86,-9,-17
-14,51,60,15,-3,127,25,0
24,52,14,22,-21,-103,18,43
57,-13,-35,-58,-26,-9,1,7
-81,-36,-1,-12,41,35,-36,-51
7,19,-3,-15,-32,-31,-15,-21
-29,-9,27,-10,15,4,0,-9
40,-3,-10,17,-3,6,13,35
15,-8,44,-24,9,4,16,26
-19,-45,-46,55,34,-6,9,1
16,25,1,-24,-65,-27,-4,-11
6,48,-32,4,1,21,-8,-21
-25,-4,-14,-28,21,-54,-24,-5
23,4,24,45,25,51,-1,9
-3,21,5,-4,36,-47,7,21
0,-5,-82,-34,-98,48,3,0
0,-23,27,-32,-18,-20,-4,-6
24,-6,-23,3,-19,-9,9,30
14,-3,22,12,18,-1,6,20
14,0,24,11,19,-10,6,-20
-69,5,-26,4,24,-34,-11,-31
12,-15,5,-15,9,-51,-12,-7
50,24,8,51,21,30,15,11
-29,-50,16,43,-65,101,5,-2
-34,-40,-48,-29,-10,-7,30,41
62,54,50,-25,-17,-64,-12,-19
-3,127,1,-5,16,-20,-30,-41
-91,-109,-33,-86,-40,-57,-57,-49
11,-48,-54,-26,-2,19,8,15
39,6,-20,20,5,-19,12,33
11,-4,2,52,57,-44,-1,28
-4,-34,43,-53,-26,15,32,12
-58,25,16,38,-73,-83,9,-27
30,29,56,-4,-52,-42,-24,-46
-43,-35,-46,-46,13,-23,-19,-9
7,-10,7,60,26,-8,5,8
18,-10,22,16,36,3,12,24
30,35,-25,1,-31,-7,0,14
27,30,-4,3,0,19,-11,-6
-63,-67,11,-3,21,-41,-6,-8
9,-16,-21,16,71,87,19,-3
39,91,51,45,-66,-87,12,17
11,6,-114,-60,-33,-32,-10,11
-36,-77,-83,-35,36,-2,-30,-14
12,-19,16,-26,-87,-26,-18,-10
-14,-11,15,15,15,-24,1,-6
-1,-14,-3,65,84,-20,19,21
38,25,29,-2,-37,-21,19,28
76,19,9,-21,-77,-29,-17,-30
-73,-49,-90,-24,19,-21,-30,-46
-70,-3,0,9,2,-7,-1,-36
24,-5,32,26,19,-52,-1,0
-38,-11,-6,-6,88,100,6,-15
-30,43,46,-59,-94,-12,-23,-10
19,-87,-29,-37,-19,-48,-9,15
30,24,0,9,-6,2,14,18
13,35,41,22,46,-12,-2,-6
6,-18,-6,17,56,84,7,9
35,8,-2,7,87,-42,-8,3
-59,25,9,-18,-114,74,17,0
8,-18,-36,-8,20,-54,-9,-3
-55,-25,18,-3,4,11,10,-29
27,-19,34,4,-52,-34,-5,-8
39,11,16,10,19,-5,-4,17
63,16,-1,4,-38,-51,-17,4
-8,10,-29,9,79,83,17,-14
-54,22,56,8,-23,43,10,-9
-42,-11,-11,11,-2,-41,-22,7
46,-23,-23,-22,26,-68,-12,4
-123,-13,0,5,-27,-27,-13,-25
41,56,37,5,-75,40,16,15
18,-8,-21,-8,-53,-19,15,8
24,-28,-23,-20,0,-17,-10,-4
-10,-11,-19,-30,-15,-33,-22,0
-59,-60,-43,3,16,-4,-3,-25
33,-11,7,20,58,-65,-17,-19
-19,-33,-3,3,3,127,33,22
12,45,13,3,-12,22,18,-7
-39,63,-2,-14,34,-36,-28,-29
1,-10,63,-18,-52,-117,-24,-1
76,-66,-122,-2,20,94,11,33
10,-17,9,31,-20,11,3,7
-82,37,20,29,44,127,19,9
-29,10,17,-12,-24,19,-8,-21
7,-16,-18,-33,-25,21,-2,-25
55,-11,1,-11,37,-42,-3,7
-6,-3,17,24,-30,32,16,13
11,-6,-34,-11,-20,-14,-3,10
19,23,21,-24,30,-28,-9,14
-8,9,-14,-34,-67,-65,-15,-11
-14,-9,-2,36,111,127,15,-6
11,-5,11,13,-38,-4,11,-1
16,-16,-50,-22,-44,-15,-5,20
-14,-17,15,-20,22,-41,-1,12
-63,6,20,25,5,-36,-14,-36
-13,21,53,-21,9,12,-7,-40
45,-8,-128,-27,-23,-26,-6,1
2,-43,1,40,17,-28,0,31
12,-11,12,6,-41,32,6,7
4,49,-15,-13,37,-48,-24,-13
40,32,-32,-14,-46,-16,15,-6
-58,-38,96,39,73,-21,-16,-20
-51,-50,-37,-50,-58,12,-23,-22
-4,-28,-22,-7,0,-7,2,1
38,19,10,-13,-7,-39,5,11
36,33,-12,44,-15,12,14,10
-5,-11,-9,21,2,-13,2,17
4,-9,24,42,89,-95,-14,-10
30,6,-6,-30,-68,127,7,-10
-26,0,18,8,-23,-34,7,3
-41,13,14,22,3,-12,-4,-20
-43,-57,-128,-33,5,-22,-16,-30
34,-32,1,-4,28,-24,-12,2
17,13,45,18,-42,-85,-2,17
79,68,22,16,18,127,31,8
-35,5,-14,-9,2,-42,-17,-5
-8,-46,-26,4,-36,-10,-14,-11
-6,-32,12,17,20,7,-4,-7
9,60,28,40,88,-27,-1,13
56,-2,70,-31,-24,-20,14,24
-19,-21,-85,-87,-128,49,10,-15
-13,-11,-10,2,16,-45,-1,-16
-22,-61,61,-23,-16,-52,-10,1
-8,5,-85,48,91,65,15,6
14,74,-3,28,1,38,12,3
-44,23,25,-19,-37,-62,-20,-17
0,-16,-17,-36,-31,2,-20,-24
22,3,14,22,39,14,2,9
21,-22,1,-25,-22,-23,-4,5
7,-7,-14,32,31,34,12,5
-4,-24,-4,18,-19,-75,5,13
61,33,4,-9,44,127,24,9
-57,78,41,15,-43,11,-7,-2
33,-39,-76,-63,-1,-42,-26,-7
-38,-49,-7,-41,18,-14,0,-7
-19,-18,11,22,-25,-42,-5,-38
-60,-8,-1,30,16,25,-6,-36
7,31,5,12,-19,37,7,20
55,-7,35,-1,24,-23,8,29
-8,-24,-92,-47,-37,56,4,10
-11,-14,15,-2,-21,-24,3,-16
-1,19,-4,5,43,-3,-6,-16
59,43,14,24,24,5,-4,22
5,2,7,30,-22,-6,0,28
10,-10,26,-76,4,2,7,-28
17,14,-17,33,47,-15,6,-17
-121,22,12,-10,3,65,-14,-44
-34,-48,-55,-44,-80,-55,-37,-20
17,-23,9,-58,21,4,2,14
26,9,30,126,127,-111,2,26
39,36,26,-36,-128,127,42,24
19,-9,22,-11,63,-58,9,39
-4,-6,-49,17,-41,13,-12,-21
-35,-30,-99,-23,46,-18,-15,0
-6,5,56,-32,-7,-67,-17,-23
-47,0,-108,7,39,127,17,-22
14,15,2,17,3,5,8,8
-6,9,80,17,-30,2,-13,-2
12,-51,-4,-1,102,-110,-22,9
15,-5,-24,-47,-128,6,9,11
-9,62,-3,28,-41,-33,11,-3
-22,12,-8,13,68,79,-2,-10
16,-17,35,1,-24,3,-6,7
-14,-22,37,-8,77,-20,7,20
40,-18,-28,15,-79,31,14,15
43,22,-5,20,11,27,2,1
-126,45,35,-80,-30,-23,-33,-57
-24,-59,-40,42,27,0,-19,-16
10,-48,-13,-10,-5,-25,-3,12
22,30,23,54,28,23,24,26
77,7,-46,-10,-47,-62,5,18
54,13,23,-9,16,61,3,-22
-128,45,47,-9,31,-13,-18,-34
-7,-34,-20,11,-14,24,-17,-8
22,-24,-8,-32,-1,58,10,4
19,-1,34,6,-47,-56,4,20
15,-5,-2,13,36,-2,26,20
6,-49,-66,10,-41,-78,1,8
30,-6,46,-3,-41,4,-5,7
9,67,33,-13,-32,16,-2,-26
-53,-22,-128,-13,22,-27,-17,-27
-32,-17,-33,-12,-13,-31,-13,2
0,-10,16,25,77,28,3,16
-32,-26,4,-24,-43,41,-6,-4
-6,-45,6,-10,-64,-128,-22,-30
-6,59,42,-4,40,127,32,5
28,55,-38,0,-2,-22,12,19
11,2,-10,5,7,-46,-13,8
11,5,73,-23,4,-6,-6,27
0,-14,-10,-19,-12,-7,-4,-20
-78,-30,-45,6,-42,-14,-4,-23
-2,-6,-11,9,10,-17,-6,-1
18,9,36,35,41,-17,2,12
8,-12,-7,-61,-33,-15,-1,5
-1,-41,-47,-1,44,6,9,5
11,-18,46,26,24,-48,11,5
25,99,59,14,-88,-32,2,11
44,83,-11,-27,25,31,-19,-13
25,-38,-49,-16,18,-11,-15,27
-19,-41,-18,-16,-56,31,2,-26
-78,-40,5,-16,9,-8,4,-36
-95,-76,-1,43,-12,-20,-5,-13
21,36,12,6,18,-5,2,14
42,73,44,-28,15,-47,-13,18
35,36,-27,-7,-27,-35,14,33
26,-26,-10,20,10,0,17,15
-34,-36,15,-49,-67,-13,-43,-43
-10,-22,-9,-23,-2,-70,-29,-56
-17,-33,-6,-6,2,9,10,26
36,7,35,33,-8,-18,12,18
-18,46,-2,21,24,-7,8,-25
38,-1,-23,4,28,9,0,29
6,-17,5,-6,2,-47,-29,-5
-128,31,-25,-19,-35,67,9,-29
48,12,-2,-1,-20,-40,3,5
-36,-43,-34,-11,-12,-14,-16,-9
9,-16,14,-25,-55,-27,-6,2
31,8,24,22,-36,-20,3,21
6,30,14,-16,23,30,6,9
16,12,6,42,89,-105,-2,3
-17,-44,-6,0,-121,-7,10,9
-33,-38,-128,-4,-5,21,1,1
-40,12,23,-9,4,-27,-7,-17
-33,9,38,-59,-20,12,-10,-38
6,-32,-16,22,-27,-31,-13,-1
3,10,3,11,59,14,13,13
-4,-5,-11,36,-5,-19,-7,6
6,62,56,-21,-61,25,7,9
34,16,29,28,78,-102,-6,15
43,-6,-24,-46,-127,99,40,8
-98,-19,-78,-21,-2,23,0,-5
-26,-26,10,3,18,-65,-22,-34
-9,-25,-16,11,37,-13,-21,-8
27,-18,6,-11,-17,-4,-11,1
4,6,-25,-18,-42,-22,-10,-15
25,-1,-15,-12,21,73,6,-17
-52,23,34,13,6,40,16,25
27,5,5,-20,-17,-9,5,12
-11,-20,23,18,24,-44,-18,-35
-15,-60,-67,-36,7,78,0,-20
28,13,1,40,-8,-8,19,26
47,116,50,6,-54,-39,-7,12
-33,46,-4,17,45,47,-12,-13
-9,-28,19,-45,-65,-18,-12,-8
-5,-47,5,24,-13,-6,2,-16
-9,-18,18,34,18,-63,-1,3
23,43,-22,11,43,97,20,26
32,9,-60,-41,-55,-53,12,22
-19,-39,65,9,18,75,-2,-17
-12,-42,-53,-42,-41,-43,-35,-40
-14,-43,-1,22,28,9,-2,-8
4,-11,7,19,59,-34,6,5
34,7,20,-2,-49,-47,7,25
13,55,28,5,-5,6,6,8
21,85,48,7,-14,-18,-5,-1
-59,-28,3,-11,117,-5,-20,-9
7,-35,-85,-29,-54,74,30,-13
-22,-37,40,-2,-14,13,0,-14
-5,-25,39,-21,24,-36,-21,-26
-14,39,44,14,-34,-23,-5,-8
9,-69,-119,-36,1,-11,0,7
17,-60,-28,14,42,-6,0,16
45,95,82,-3,11,-21,5,25
-1,86,-37,-3,4,47,-6,3
-62,-48,-60,12,-4,-6,-15,-26
-2,-17,75,-30,-91,27,16,6
19,-16,9,13,16,-4,1,-6
-58,-48,-128,-21,9,-4,-14,-8
7,-21,5,-4,-11,-19,-5,1
2,0,-6,-22,-14,13,5,-1
25,-2,21,28,-2,6,13,26
50,42,10,23,17,2,7,14
-54,28,-18,-2,31,-42,-17,-38
-44,-40,30,-17,-29,45,4,-20
50,12,36,5,-34,19,2,-10
9,45,-75,-63,-16,-2,-9,5
14,-9,-74,-22,-44,-32,-6,10
-12,-48,1,31,-6,-28,-13,-2
-1,-16,34,-8,15,1,2,-2
-12,-1,25,30,35,7,-2,-7
46,21,-2,5,-6,-59,24,26
23,18,6,29,49,127,9,22
-40,17,63,-20,-58,-6,4,-32
-90,-59,-68,-29,-54,-40,-30,-37
34,-34,-7,24,16,-22,9,6
14,5,-14,-42,-61,-47,-4,16
67,88,52,19,68,2,-1,25
-36,26,33,18,-12,-2,-15,-3
-64,-28,-22,2,-3,2,4,-2
74,-41,-2,19,-28,-29,10,23
-16,3,29,31,59,-53,-10,-36
-128,16,-36,-6,54,127,-8,-36
69,-4,-64,-98,-95,34,3,9
38,22,-3,-14,10,-28,6,12
-50,-58,12,34,50,-65,-26,-48
-73,34,-13,-4,-66,-11,-7,0
71,8,59,-3,26,11,0,15
-53,-22,-50,-13,-6,-32,-19,0
11,-49,5,14,32,11,6,9
-27,-3,33,42,28,-4,20,2
39,55,23,5,-32,12,17,7
-18,47,-20,-39,-23,-44,-17,-15
16,15,11,-43,-17,73,-14,-6
2,-26,-30,-18,-23,-17,-2,8
1,-29,-17,35,14,-13,7,6
-2,-13,-2,8,33,-26,1,-4
7,13,-9,6,-29,38,5,3
21,-27,27,13,14,-58,-18,15
11,44,33,41,83,27,13,3
-33,28,25,-35,-40,18,6,-13
-25,-46,-75,-1,-33,6,15,-5
8,-6,14,-25,-40,-41,-20,-12
-23,-33,-17,-8,13,-40,-14,18
33,3,19,1,-1,56,8,-7
-9,13,3,13,31,-42,-10,-20
-41,17,12,-2,8,30,6,0
36,-3,21,34,1,-7,17,46
12,-9,4,28,43,12,1,21
53,37,64,16,-8,2,-4,-22
-29,7,-31,-21,-33,11,-19,-59
-3,27,-78,-20,8,-38,-2,10
16,-46,8,-28,16,-28,-5,15
-40,-28,28,43,25,-67,-1,11
11,17,3,10,-7,31,8,-5
-39,1,63,-10,-11,-8,-21,-38
12,-29,-128,-2,7,-5,4,7
18,-6,32,38,34,17,9,20
32,14,-29,-10,-26,2,-5,14
22,-45,-60,-40,-19,14,-1,-1
-50,22,83,13,-4,-28,-3,-21
-3,3,0,-12,5,-12,-11,-11
-7,-34,2,-14,-5,-16,-1,2
-8,-15,8,29,24,43,17,40
104,84,46,16,35,-105,-5,8
-33,50,-14,26,-44,127,7,-30
-107,-40,-47,-47,-37,47,-31,-65
-2,-36,-19,-23,15,20,-6,7
28,-18,13,0,-27,-67,9,29
16,-50,13,-2,-17,57,16,14
8,49,8,15,35,-24,11,4
29,65,-6,11,-13,3,-1,-6
-33,-48,37,-15,-10,-22,-24,-6
-19,-63,-51,-7,7,-58,-10,11
5,-1,-13,5,12,94,28,6
2,23,-1,-17,-5,-69,-2,-27
6,23,-2,12,-42,80,10,3
-5,-12,14,-17,-12,-45,-30,-6
6,-4,8,-39,-11,-17,6,11
-8,-1,16,4,-33,-17,-3,5
33,7,45,-12,-25,-7,4,0
0,13,-109,14,27,-24,2,-7
-49,5,-20,7,38,-11,-4,27
52,-19,-4,-12,-6,42,0,1
-43,-12,52,33,-39,-22,5,-27
-49,-23,-13,-19,4,14,3,-28
0,19,-22,18,12,-7,-5,-7
1,-9,9,-30,-16,-25,-8,9
6,-10,-20,6,3,-14,-9,7
31,19,13,3,18,4,15,35
14,-37,-23,-8,-4,-19,12,12
-1,-7,17,53,10,-69,-7,-25
5,68,19,-11,94,113,-15,-55
18,3,-45,-40,-118,-31,-18,-25
-79,-55,14,-25,-21,-13,-2,1
13,-6,-12,-27,1,45,12,10
21,30,-19,48,21,-2,10,16
7,-33,-17,21,-7,-22,-15,-5
3,-22,20,-26,-16,-4,-9,5
1,-1,-11,-10,-15,-28,6,6
-10,-7,-19,-12,105,42,1,-9
2,22,48,8,-111,19,9,2
22,26,-56,12,31,-66,-7,6
-2,-68,-31,-7,6,83,-2,-5
-22,-15,29,-5,-45,14,4,-2
40,89,25,17,4,0,1,-5
-1,21,-31,0,10,-14,-11,8
-53,-31,20,-21,4,2,-7,1
32,-29,-29,9,-4,0,8,38
20,2,55,29,31,30,10,-22
-79,14,-5,-21,36,-54,-39,-99
-12,8,-19,-52,-98,-2,-10,-9
-10,-29,-8,14,42,16,-7,16
42,-45,2,-18,-82,59,21,34
12,0,14,-15,-27,-37,4,9
-50,44,37,58,50,40,12,2
25,33,17,11,-37,-47,-1,13
4,-62,-104,-41,64,23,-14,2
19,-30,-22,-14,-29,41,12,30
35,52,71,6,15,-55,1,-1
-39,5,17,11,-52,-33,-5,-27
-42,-49,9,-3,17,9,-22,-33
10,1,-1,-37,-11,-36,-7,5
15,27,0,28,-6,12,-5,5
4,-3,21,-14,-4,-5,5,4
13,-74,-59,28,-7,-11,11,36
34,19,2,23,5,-24,20,29
-25,106,34,-11,-14,-6,-20,-38
-18,-73,-25,-40,-6,50,-38,-58
-33,-23,-3,11,-25,-32,-3,10
16,8,6,-34,2,1,9,16
69,31,17,42,24,-58,-13,9
-49,-63,-41,-3,31,22,14,8
-27,-6,-17,-26,-16,56,-10,-5
18,54,114,5,-15,-100,-9,-5
5,-12,-89,16,27,15,-12,-2
16,-39,-3,7,-89,83,31,21
-3,-37,3,-39,-1,24,9,23
39,32,-8,49,8,-34,4,-5
-32,38,-22,-59,22,-13,-20,-34
-28,-37,29,-36,10,-36,-36,-63
9,-8,-10,42,-9,14,-4,17
-10,-36,-31,-8,-21,-80,4,5
29,17,3,-13,44,66,4,18
1,19,-8,-34,5,-55,-7,-11
-44,30,-9,28,-63,-15,8,-13
29,-24,66,-56,-12,11,4,18
14,-51,-106,-8,-4,-6,-11,7
35,12,18,2,19,-4,0,18
30,21,35,19,-5,-1,8,-8
-128,-8,-32,1,34,-49,-17,-45
46,-9,10,-5,-19,15,0,-20
39,-13,17,23,-28,5,-8,18
8,5,47,-10,47,-32,1,14
5,44,-13,-9,-46,17,18,16
54,20,-13,-17,-9,-32,-8,11
-6,-10,34,46,15,6,10,17
-43,-70,-106,-29,66,-46,-12,-28
-25,28,28,2,-63,37,-13,-31
-23,9,53,-44,-26,-26,-19,-21
14,-27,-121,-29,10,-38,-2,20
46,-11,11,18,-6,1,8,11
-1,15,24,30,92,-6,-1,7
-86,-8,-2,-7,-100,-42,-13,-9
14,32,13,2,16,-45,9,-17
11,2,39,47,-21,69,3,10
8,-36,15,-11,38,-5,6,0
45,3,45,32,-15,-36,-1,0
1,79,8,-15,39,-12,-3,-9
-38,20,-11,-34,-52,31,-5,-27
-21,-49,-58,-25,79,-20,-10,1
10,-7,23,-6,-48,-5,2,11
12,-3,36,-4,-36,3,-1,17
19,-7,47,55,41,-31,-14,-10
-30,-4,-52,27,41,100,13,-7
1,1,-25,-32,-71,2,21,14
66,-45,39,10,12,-71,-2,18
-18,112,63,25,43,32,5,-6
-79,18,-48,-29,19,14,-18,-34
22,-13,-24,-39,-46,-90,-37,-14
0,-44,5,15,-44,59,16,2
29,18,-18,-40,-9,-2,17,38
52,-32,8,33,29,-15,8,9
-65,-14,44,31,76,65,-2,-30
-13,-1,-43,-15,-82,-18,4,2
35,22,-11,-9,4,0,-3,-8
-60,30,-1,5,34,-3,-5,-4
-8,-4,32,-12,-24,-50,-7,18
4,-49,31,16,55,1,-3,-3
22,22,-25,-10,-116,15,5,5
9,24,10,22,21,-42,-2,-16
-19,23,39,-18,23,59,-3,-9
-22,-69,-66,-28,7,-20,-7,-1
4,-3,-17,-35,-3,-4,3,0
-20,20,-26,25,1,-25,-2,-3
-2,-22,15,18,2,27,10,5
-1,-41,34,49,66,6,6,20
44,-5,8,0,-38,-85,-10,11
28,74,22,-25,16,127,9,-10
-44,8,28,-4,-54,-51,-27,-27
-126,-74,-110,-35,14,-28,-24,-51
22,-5,-8,-4,-27,-30,13,15
35,-3,16,13,46,16,6,20
-2,8,-28,-41,-56,-48,0,1
-88,12,22,0,30,86,15,4
60,-4,3,-1,23,-45,-3,-16
-93,-6,-32,16,-24,6,-7,-17
54,-18,77,-4,-13,-10,-7,38
9,15,20,9,14,6,12,14
-81,1,-73,5,62,25,-9,-51
-29,-24,-15,-29,-25,22,-6,-35
-9,-88,-23,-22,53,-37,-25,-10
22,16,31,-15,-100,12,2,22
38,66,53,50,94,6,21,21
48,34,-44,-8,-26,12,5,17
-82,-21,8,1,40,-78,-33,-15
-12,-14,-3,-33,41,100,1,-20
-5,-48,-9,2,-56,27,13,-13
25,1,-35,-22,-14,-20,-6,-2
-5,48,30,31,-1,-45,-4,-3
8,3,17,-31,28,33,1,1
5,-23,-37,37,2,37,0,7
2,-54,30,5,46,-16,11,7
2,0,-5,-11,-49,-48,-2,3
45,71,28,3,-18,-128,-19,3
-22,-16,3,-29,-4,127,13,-2
-57,-12,-48,-3,-22,-1,7,10
11,-53,7,-22,-10,-16,-5,-20
-16,3,22,20,27,-19,-12,-48
-14,56,-28,-11,-11,-13,-2,-5
6,-17,7,-40,-11,1,-1,10
18,-62,39,-20,-14,2,-1,4
13,-19,-7,44,7,20,4,18
77,73,35,16,119,-98,-6,33
-63,-6,50,-7,-47,127,21,-34
-119,-19,-66,-22,-100,-107,-19,-61
16,-32,48,3,-23,12,4,18
31,-26,-52,11,66,-9,0,39
18,54,9,19,-2,15,16,8
20,-6,-37,-48,-35,-26,-16,-28
0,3,14,23,17,42,-8,-13
-18,-25,14,-2,-10,-42,-6,4
-44,-7,24,32,126,19,8,3
-6,14,-43,4,43,52,16,20
-6,-4,8,-30,-128,-40,-9,-16
15,-15,-28,29,29,5,-6,-4
-14,33,30,-8,-25,-4,-7,-7
61,17,-11,11,44,-52,-17,-3
-89,-6,-1,-23,-18,68,14,2
-32,-50,-79,-2,-5,-20,-6,-12
1,-7,12,-31,-8,4,5,-9
19,-21,22,19,-3,-6,-2,6
35,30,39,3,-51,-19,15,14
18,41,-24,11,-22,-15,-8,0
-21,18,8,-7,11,-30,5,-3
-6,-41,-32,7,7,-6,-8,17
28,-16,-34,-21,-9,-4,1,11
-34,7,16,-3,19,8,-18,-52
15,50,62,13,12,-38,-2,6
63,105,39,39,27,35,16,27
-14,31,-4,28,-15,8,1,-8
-127,-128,-77,-94,4,127,-27,-80
-27,-88,-7,-43,-18,-13,-6,-2
16,-11,-26,51,-25,2,9,17
-7,38,-5,-5,17,-24,-4,4
52,23,-30,-24,-35,1,8,23
39,-6,18,25,42,7,-4,3
8,-6,-7,9,9,-128,-22,2
-24,-31,18,-21,44,127,26,6
15,47,-27,2,-40,-31,25,0
-1,55,-12,40,-27,-25,-15,-3
-8,-38,-15,-36,1,17,-13,-7
6,-5,28,7,-11,-7,-8,12
39,10,3,9,16,2,4,15
-25,-4,36,17,-12,26,-2,-24
-53,-27,-89,1,65,-81,-2,-16
33,8,-52,34,-15,63,5,2
-9,-14,-9,-67,-57,17,-20,-1
9,-5,11,-8,-14,-33,-3,-13
-70,-30,17,23,23,-3,6,-28
0,12,30,41,6,-21,9,1
40,36,-10,4,-31,3,10,28
9,24,-4,-8,36,-29,-22,7
-34,31,0,4,-46,18,-14,2
18,-31,-11,-20,8,78,-2,-23
23,-30,-17,40,42,14,16,16
-26,42,17,-51,-48,-36,-5,-18
-56,2,66,3,-33,10,-10,-8
11,-14,-50,14,0,37,8,11
42,-12,-11,-32,-10,-6,0,9
-5,-19,-20,8,36,-7,3,6
-44,-50,6,21,36,-30,-5,-4
47,14,28,14,-17,51,-7,17
4,40,3,8,42,-106,-7,7
-20,-6,-31,7,-48,60,18,-16
-73,-16,21,-18,-8,-36,-5,-40
42,3,-27,-92,-76,68,-2,-15
50,45,-7,54,2,-21,-14,17
-61,-51,-2,-82,-2,-30,-9,3
-38,-26,-25,31,15,1,5,-10
20,16,53,12,35,4,5,2
31,31,-57,11,-1,-1,-2,16
14,-3,28,-14,20,-22,-13,9
-9,-7,7,1,-83,-23,-3,-5
22,6,-1,9,40,31,30,-6
-56,-26,-35,-36,-84,34,-18,-32
-24,-13,70,19,16,-57,-13,-16
35,8,-45,-14,73,-11,-3,21
-48,36,-8,-27,-67,6,17,10
-2,-10,1,-1,40,-61,-27,-42
0,-25,-9,3,-26,63,9,-4
-35,-23,23,7,29,11,-1,2
41,-9,8,62,40,-9,10,17
36,64,10,-33,-41,46,11,18
46,32,-4,-16,-56,-34,-8,-3
-88,-49,-73,-25,-15,-2,-16,-22
-1,-15,74,1,7,10,11,11
21,-6,-43,31,3,-45,-3,35
9,16,23,-5,45,121,4,-5
5,-18,-6,-19,-31,-39,-4,-26
13,-7,1,13,11,38,4,-14
-64,4,1,-10,18,-5,-11,-7
3,8,12,4,25,6,-3,12
2,-16,-7,-17,-55,-8,4,1
24,10,9,16,-29,-19,-8,5
3,-47,6,13,32,-49,2,0
47,-1,16,-13,-21,123,21,22
-12,43,68,5,98,-17,11,14
-98,37,-53,16,-64,-9,-5,-13
76,-2,-36,-16,30,-6,-16,-27
-39,-28,56,-13,1,-4,-17,-19
3,-27,-4,13,57,-6,4,-10
33,-1,-49,8,13,-29,13,39
47,43,36,-41,-45,37,9,11
25,6,-24,17,-54,-40,-29,-36
-80,-14,21,-28,-15,-3,-16,-22
-19,-13,12,31,15,-10,0,0
18,-4,-2,7,6,-8,2,15
2,6,17,18,31,67,13,4
14,-12,3,22,5,-6,11,9
31,-85,-96,-16,-13,-36,-4,10
-1,34,31,19,120,10,3,8
46,74,22,-16,-104,68,-7,0
-128,15,10,-6,-26,-94,-26,-33
-22,-61,-86,-39,-64,-15,-27,-56
-1,-16,2,-4,27,33,13,11
10,-17,20,2,-1,-10,4,8
12,-1,14,0,21,13,-6,-14
33,5,6,-21,-14,-16,10,11
-18,1,1,17,16,-2,9,7
-10,-23,-3,5,-7,3,2,3
-3,-18,4,29,17,-3,-9,0
19,33,78,11,-44,-47,-13,16
45,55,-69,-29,111,0,7,9
-27,-28,-92,-24,-105,123,28,-16
-84,-75,36,-57,-31,-72,-18,-55
-4,78,119,-1,18,-36,-6,-1
-31,-19,-44,9,20,-25,-15,8
14,-40,0,-33,34,-4,-6,0
16,-9,-70,10,-23,3,4,1
48,12,27,28,1,21,7,10
-83,-28,-5,9,30,1,-1,0
52,-11,17,32,10,-36,7,24
-14,20,53,17,32,70,19,-1
10,68,-2,-11,-71,8,11,-13
4,20,-49,-32,12,8,-31,-21
-39,-45,-30,-18,6,6,-23,-17
6,-42,14,-24,-36,-23,-11,-6
18,11,3,-1,2,5,14,6
6,30,26,28,17,6,6,9
12,-5,35,-2,-31,-31,-8,8
2,-27,-18,4,64,30,3,2
-13,-23,-3,51,-51,127,32,5
51,66,3,-30,-1,-5,4,0
44,61,65,16,29,16,-7,-3
-106,-54,-32,-1,-49,-15,-32,-36
64,-12,-53,-56,8,-27,-16,1
-42,14,31,41,14,-17,-7,5
-68,14,20,-8,17,46,9,1
27,-35,5,30,-14,-8,7,24
23,-6,5,50,65,-68,-8,-6
-3,1,20,-24,-65,-17,21,1
-7,31,-12,28,-21,-6,-13,-27
-17,8,-33,-6,5,-7,-14,-16
-44,-52,3,-14,-20,-30,-16,-12
10,9,21,-11,19,-5,2,10
14,9,30,9,12,-10,2,13
4,-3,28,-11,-7,11,5,8
2,-6,-13,14,-7,-27,-4,4
14,-17,0,26,10,-13,19,16
10,2,-10,9,76,116,23,8
6,68,39,12,9,-43,-14,-30
-2,65,66,-7,-56,-1,-20,-13
-32,-71,-83,-49,22,-17,-15,-15
17,-44,-72,-52,-22,-11,-2,3
-20,-32,15,4,3,-2,1,4
18,25,27,3,1,-22,-7,2
21,49,18,9,-6,27,1,3
-2,-1,-2,8,6,-10,3,-2
-3,-19,-17,-14,-9,-5,13,1
81,15,35,38,31,-68,5,51
34,-15,-34,-19,3,127,20,13
-124,-31,-36,19,-31,4,4,-46
-97,-4,44,-25,25,-18,-31,-62
17,-6,-63,3,-16,2,2,14
50,-3,-58,-31,-19,-38,0,25
22,8,36,6,15,0,-15,-24
-4,-13,21,20,-36,-15,6,-8
5,-12,-14,4,8,8,4,6
20,59,-13,-9,26,0,2,12
-1,6,26,-15,-7,-23,9,24
-13,10,9,31,12,65,-8,-2
5,0,4,-27,-49,24,3,-7
-51,-15,4,1,8,-11,1,-17
-21,-46,-37,-27,-36,7,3,-4
5,3,15,25,0,-10,-6,-3
-9,-24,46,-15,13,-83,-23,-6
22,45,8,10,33,103,30,28
65,53,33,25,14,34,22,17
-42,-26,-80,-27,3,-42,-22,-25
-105,-24,31,-23,-48,9,-26,-43
16,-23,-9,-22,44,-70,-2,0
19,-27,20,8,15,56,7,14
10,-14,20,64,10,-32,12,18
52,39,-27,34,-13,-1,15,27
1,50,15,-31,-34,-32,-20,-5
-28,8,37,3,18,17,-13,-20
-44,-27,-17,-40,-9,-45,-12,-9
28,-26,-20,-2,81,85,22,-2
6,-19,-1,-14,-93,-4,4,-8
-25,2,7,-7,-36,-44,-13,-13
-16,-1,33,31,12,-15,-11,4
46,69,27,5,14,24,17,47
23,3,-22,5,7,40,0,-6
-68,-48,-80,-25,-24,-41,-17,-51
9,-16,17,-21,14,11,-10,3
10,8,9,10,87,-21,-8,10
-31,-24,25,3,-23,-80,-3,-5
30,10,2,10,-34,42,4,4
52,-2,13,-13,-21,-11,7,12
31,38,19,30,-8,-16,-2,36
-75,2,-54,-7,21,-35,-21,-29
-56,-10,-16,-20,-40,3,-11,-52
-2,-33,-43,-72,-13,-2,-14,-7
26,13,44,36,-23,2,20,19
30,-17,-62,-9,12,-52,-1,17
-20,-10,50,-3,-6,53,8,17
24,57,38,31,50,-27,-4,22
18,-15,-15,15,68,32,13,-4
-16,-33,-44,-30,-70,-60,-6,-14
-27,-8,-21,3,-32,51,-10,-8
-24,-37,8,-27,20,-5,-11,-10
-26,8,5,27,64,0,1,3
29,25,55,-6,-47,11,10,-5
39,50,-14,25,27,78,0,-7
-28,16,13,8,21,-44,-14,8
26,-29,-32,-31,-27,-3,1,20
2,-17,-29,-57,13,-3,-12,-5
-57,-47,-101,10,-29,-6,-15,-53
-21,18,108,34,28,-14,15,-2
42,7,10,27,23,-25,7,16
-24,21,7,-44,-23,29,-2,4
7,-21,-13,-15,-21,-51,-24,-26
46,-29,-6,24,1,51,13,13
25,29,-15,17,33,-107,4,22
-14,54,20,6,-34,127,30,7
-128,-117,-17,-48,-12,-45,-42,-90
18,1,-12,-20,33,-8,-12,-22
36,-5,-27,20,32,10,14,23
17,18,22,-59,-21,-29,-1,11
21,8,-6,-19,-51,-22,-8,14
10,6,47,44,7,68,5,11
0,-2,8,38,50,95,20,11
25,-24,-35,-16,-13,-27,5,10
35,68,-29,3,11,-8,-4,23
-32,25,-2,2,33,-22,-20,-52
-102,-65,50,-10,-19,-10,-22,-48
-4,-11,-72,-11,12,33,-3,-4
15,-38,-35,38,27,9,16,11
13,-4,55,-2,-37,-17,6,5
58,1,11,-39,-29,66,3,29
28,32,-31,-44,-40,-56,-15,2
-117,6,10,-13,23,0,-6,-33
-40,-11,12,33,79,-105,7,-8
37,40,41,28,-51,115,22,18
38,-6,-55,-46,-6,-11,-7,11
20,-46,-27,-9,-29,-47,-9,16
-24,-25,-16,-18,62,-41,1,3
10,56,78,-2,-15,-11,1,-41
1,22,-52,2,14,127,10,-13
-22,-47,-46,-51,-18,20,-14,2
-23,-40,10,1,13,-29,-23,0
-1,12,20,12,44,-5,9,13
31,-1,-19,20,-23,-11,12,15
9,27,26,12,58,48,17,2
-64,-27,36,17,-90,-65,-26,-23
57,63,-3,27,54,31,1,-7
-54,10,-32,-57,-45,47,10,8
21,-71,-6,-37,-7,2,1,-5
16,-55,-93,12,31,-43,-7,-3
-71,12,40,11,18,12,3,-10
51,6,-9,-37,-39,22,-4,6
9,-14,-31,43,35,-7,-8,1
-14,2,-5,-41,-4,-14,-7,-11
14,3,28,19,-11,-11,17,13
4,-30,51,44,40,-82,-1,21
17,27,10,4,34,127,18,3
10,49,-17,-49,-46,-37,-3,-9
-60,-20,-14,-40,-95,-34,-45,-52
3,-27,-43,9,57,15,5,6
42,-42,10,14,-12,-5,9,33
-22,29,49,19,6,-7,0,-12
-10,24,10,-14,-33,-78,-23,-20
17,-9,-5,10,65,118,32,6
2,5,20,6,18,-47,-14,3
36,8,-48,-6,0,70,6,16
-1,-29,18,3,-15,8,7,14
-65,22,23,-2,-9,-7,-1,-1
44,-5,-2,-13,-50,-43,-14,4
-7,-16,20,-13,52,28,5,-23
37,-12,-12,76,67,-28,-2,6
41,-12,6,-40,-45,49,-8,1
-74,20,35,-20,-43,-14,-4,-29
-40,-10,-15,-24,-12,18,10,-7
1,23,-85,-40,-13,-17,-12,5
-9,9,44,-20,32,23,-16,-6
5,-25,-11,9,19,-5,-6,8
28,-8,8,31,14,-18,8,14
4,11,40,6,-8,-9,12,5
-39,11,-6,-34,-23,35,3,-17
16,-17,13,12,5,12,-5,1
-9,-43,-9,9,38,-92,-15,6
14,5,-40,-10,-11,42,21,12
22,70,3,1,-12,-36,1,-7
-11,-28,50,-16,8,6,-17,-8
8,-12,3,-8,-13,-19,-19,5
-50,4,-6,-6,-4,64,8,8
17,-22,5,0,51,-70,-2,-18
-26,-25,4,41,5,6,1,-25
37,-4,46,36,-38,31,17,6
17,81,16,-6,32,-77,-12,8
43,81,-20,-70,-54,70,-18,24
-15,-63,-46,-47,49,-15,-14,-13
-93,-39,-20,-4,-49,-22,5,-21
-6,-20,0,4,11,24,6,-5
2,-4,20,33,9,61,8,-5
30,6,44,17,7,-13,1,29
46,2,-10,35,61,-5,20,31
-52,19,-5,5,1,9,-7,-25
-37,2,-3,-79,-52,-3,-39,-105
-13,5,-42,32,-23,5,-16,3
17,-13,9,-29,38,-128,-4,19
14,-19,6,3,-4,103,31,15
13,5,5,8,-32,15,2,8
36,37,-2,2,10,8,2,5
-13,-7,-9,-29,-19,-7,-15,-2
-6,-13,-2,-15,18,-17,-8,0
-26,10,-1,16,14,41,7,-1
45,7,-26,-19,-18,-58,7,4
-39,-12,35,28,-21,-23,-1,0
5,-8,-65,-57,-17,-23,-17,-24
-47,-12,-18,-1,40,32,-8,5
8,-14,-9,28,5,-54,0,6
23,16,30,20,9,13,11,-3
-10,-9,-29,-3,-25,-21,6,-8
-7,-44,-86,4,12,-2,-21,-16
21,21,8,-23,-31,-30,-15,17
2,30,88,-11,15,-8,10,0
-31,-5,-29,26,21,-29,-3,-17
5,-8,10,-4,53,-28,-1,8
46,14,21,0,-89,64,13,35
-6,-19,-20,-52,-11,-22,-10,-13
-44,-17,-26,-11,11,-2,0,-23
-37,14,24,35,-6,4,1,-18
38,30,55,4,2,-20,4,3
66,-22,-61,-21,-12,-74,-17,22
-13,12,5,13,23,-44,5,18
-53,32,-1,6,12,22,10,-5
-7,-16,-49,21,-45,-22,-11,-32
24,10,-6,-18,-11,-7,-19,-16
6,-36,-20,-1,4,-15,-9,3
5,-15,-5,6,50,13,1,12
7,4,38,3,-21,-1,9,13
31,11,10,19,-12,-3,8,11
29,18,0,46,27,29,9,16
-99,7,-5,1,78,-93,-32,-18
9,-4,-23,-15,-23,99,22,10
35,24,59,-30,-71,-92,-16,-13
-61,-36,-106,-21,-34,39,-11,-28
-8,-23,26,26,13,-12,1,3
44,27,-10,26,48,17,4,21
8,3,-1,-33,-8,-20,-8,-15
46,-7,50,50,21,30,3,-9
-60,31,2,-10,-3,-7,-5,-21
-70,-5,-3,7,-27,3,-5,-8
3,-41,-56,-30,39,-10,-16,-5
46,26,24,-21,-48,-3,1,14
0,-19,-35,74,80,58,-6,-14
15,13,31,-22,-16,-58,3,-10
-23,4,-11,-48,-57,-14,0,6
19,-13,-8,-6,-24,-10,1,22
-21,-15,0,28,95,27,4,-11
-24,7,2,-21,-30,-30,-9,-29
10,21,30,-31,-64,38,6,7
44,-45,-45,38,19,4,-2,9
-69,-47,-29,-11,-14,-31,-11,-13
-19,-11,3,-18,-31,-35,-3,3
2,-12,10,37,81,-15,6,-4
9,78,62,6,-68,43,20,20
39,86,-32,-1,-17,-30,-8,-5
-7,-41,-65,-14,29,22,-18,-12
-15,-42,20,-11,40,-79,-28,-6
-20,-15,37,22,-43,-9,22,7
25,28,12,-15,-82,23,13,5
9,23,-24,-9,44,43,-4,-7
5,-29,-14,-10,-41,-24,-22,1
-80,-66,-25,6,22,-10,0,-16
6,18,14,-16,-7,17,1,-1
41,45,36,20,-10,1,3,24
35,-11,-16,-3,32,-3,-7,-18
-77,-32,-119,-26,0,26,-14,-14
38,-16,43,43,16,-39,-12,-9
-33,-12,-8,-62,-45,39,13,-11
10,-3,1,-30,-44,-9,9,4
13,53,5,0,-14,-36,8,10
9,8,19,18,10,-20,-10,9
-2,-48,-90,-1,35,-11,-7,4
27,-15,-6,-19,6,5,3,14
-23,-19,12,-3,-46,31,-2,-11
-11,48,27,-1,38,-49,-15,-19
-16,8,11,-25,-78,47,6,3
2,-26,6,41,50,-107,-12,-6
-12,-8,-3,-1,-61,48,14,-7
-10,31,8,-8,-26,2,-1,-2
7,4,46,8,34,-25,-1,10
21,-9,-42,2,-29,1,0,22
25,25,-21,-12,17,43,10,13
-17,-18,29,6,66,-35,-10,-11
-120,-22,41,7,-27,31,2,-21
-35,-19,-45,-15,-77,-62,-14,-36
5,-4,-16,-40,-39,-28,-15,4
19,11,40,-12,13,7,0,5
-36,3,28,14,20,-15,6,0
14,-1,-23,12,-16,33,6,-7
16,-61,-43,-41,-30,20,-1,7
-10,-19,3,58,32,-21,-2,14
17,64,39,22,18,28,10,11
11,27,8,9,54,-60,-12,-12
-23,-4,4,-29,-59,127,24,-46
-20,-8,20,3,-24,-31,-12,-1
-27,-19,-26,6,16,-4,-18,3
20,-20,4,6,40,-39,1,5
14,5,92,-19,-31,-8,10,-4
-24,-4,-47,24,32,-71,-10,-12
44,43,7,33,15,41,3,22
-1,-62,-106,-68,-26,-51,-12,-17
-1,-5,26,-18,-20,-30,-10,-13
26,1,15,10,-24,39,2,-14
-61,11,33,30,-8,29,9,2
-14,-8,-7,-4,13,-47,-7,12
25,-5,-19,-8,51,-26,-11,1
-5,8,15,6,-26,13,1,-8
-25,-7,-29,8,13,-18,-6,-13
40,-1,42,10,-12,63,11,15
1,-44,-30,7,-14,-5,7,19
-28,39,16,12,-50,-16,-4,1
-5,43,8,-18,34,37,-13,-46
5,14,-22,-15,-31,-40,0,-2
-5,13,69,-28,-1,17,6,3
-16,-32,-17,11,11,-3,6,18
23,-53,-89,18,25,-7,-7,11
43,-12,60,-16,5,-31,-10,-11
-33,46,8,24,49,-9,0,-17
-21,9,-33,11,-8,-14,8,-6
16,0,-8,-18,-73,-15,-1,10
29,3,0,-40,36,33,1,14
29,-18,6,12,9,-10,-2,3
-14,6,-11,10,-31,-79,-3,-10
-12,11,24,41,-5,67,14,-5
9,6,84,-25,31,-128,-30,9
1,-9,-128,-28,-31,92,13,17
13,-8,-39,-2,-15,-32,-14,-24
-14,10,-28,-3,-7,-13,3,-14
-46,-23,6,2,37,-18,-9,-20
5,-12,59,-9,-21,8,2,4
12,5,-23,16,11,-4,-1,18
53,-10,11,0,5,-110,-10,17
-1,-2,-23,22,58,2,10,4
-73,25,23,6,-64,14,12,-19
1,26,1,-10,9,3,-13,-10
3,-27,-85,-23,-48,-15,-6,-4
-19,-1,31,1,33,-13,-13,-16
31,0,3,-11,8,1,1,2
-7,-3,-2,-19,-9,-8,-4,-2
53,-11,10,14,10,11,14,46
-5,3,3,9,-47,0,-2,-6
-65,37,-1,19,62,75,13,-48
-45,-41,-1,-31,-77,-37,-21,-15
22,-15,-51,-14,25,40,11,10
18,-4,-10,-17,3,41,1,20
25,-5,-6,-10,-28,-24,-14,-3
-21,5,17,29,20,29,3,-1
-18,4,6,-5,14,-23,1,-13
4,-11,4,18,-18,-4,6,0
6,4,1,-29,9,-8,-5,-2
22,18,-6,-8,38,-96,-19,12
0,-11,8,-2,-24,26,9,6
-9,-18,-18,24,29,25,8,-6
42,38,-6,-12,-88,-42,-1,-6
-34,11,0,-16,39,6,-19,-15
-29,-21,-3,25,16,0,-9,4
26,-11,-6,2,6,7,5,12
10,4,-1,30,20,-12,5,2
-34,5,3,-24,-14,3,-1,-9
61,-2,59,2,-13,43,-2,-6
-87,-29,-73,-3,-8,-61,-2,4
-5,7,-19,-22,-6,36,1,-22
20,7,26,26,-11,-9,-4,-6
-14,9,23,-11,9,-22,2,-2
-21,10,1,-16,-13,11,9,7
46,-15,-29,6,17,21,-10,2
-10,-6,50,-5,-7,-31,2,-2
-29,-43,-29,-11,51,16,-3,-17
19,41,23,45,-43,-51,-5,18
22,18,-9,-15,-5,32,5,7
4,-18,-27,-47,-16,10,-11,-10
8,-9,14,5,7,-43,-4,2
64,-8,44,24,12,66,12,3
-92,3,-36,-17,17,-51,-1,-11
-28,15,-27,24,33,64,-5,-4
18,-2,12,-13,20,-12,-6,8
7,4,31,18,-19,44,12,14
48,-16,19,-30,-39,-6,-2,-9
-31,22,-46,19,11,-30,3,-38
-45,-7,47,-13,-13,-14,-20,-10
-1,-21,-64,-43,-19,-15,-27,0
11,-34,-41,-29,31,40,25,18
12,-4,-6,56,30,14,19,6
40,75,44,19,-13,24,2,-9
-16,11,16,-1,-10,-9,-14,11
3,-42,7,-25,-7,-11,-11,-7
-66,-22,3,12,5,4,4,-19
14,18,23,5,19,21,13,-2
57,27,-49,-2,2,-27,18,32
12,-9,56,0,-14,-4,-21,-8
-48,-16,-91,-16,4,-25,-20,-24
-14,-3,8,-28,5,-32,9,10
67,2,39,29,30,27,10,-9
-20,-25,11,17,-67,64,7,-5
-54,27,-54,-22,13,5,3,-6
28,61,72,9,-36,29,-1,18
-7,-63,-20,-82,-43,-27,-27,-15
-36,-22,-10,44,26,-87,-28,-22
5,12,1,-29,-1,88,27,10
-2,40,28,29,43,-49,7,18
24,1,-46,0,-8,-22,-4,22
-21,-13,27,-14,-12,-8,-4,-19
-4,-9,15,-18,-35,-10,1,-8
-1,-6,-6,13,59,12,2,-5
20,-7,13,9,-73,-18,-10,1
-28,9,29,6,25,4,-11,7
-20,7,64,4,-5,-15,2,-12
22,10,-128,-25,-27,28,15,-1
6,48,2,2,25,-49,-21,-4
-34,-39,78,-8,32,-34,-16,-30
46,-21,-12,-18,-53,80,2,11
-29,0,-3,8,-14,-11,5,5
-20,-6,1,69,-5,-16,15,-5
52,17,35,-9,5,-2,6,16
21,45,25,0,-4,-31,-20,-7
3,20,-35,-43,23,17,-15,6
-50,0,-33,18,7,-19,-7,-6
-53,-49,57,-23,-34,22,15,-23
26,-4,-28,47,-3,-39,14,2
10,-10,-26,-30,-10,-6,-14,-5
13,13,2,8,24,-70,-27,-6
-11,-9,-65,14,16,116,18,11
52,-11,18,-30,-60,-27,9,19
-23,17,34,5,-6,6,-2,-12
-70,4,28,18,2,11,2,11
10,11,6,1,58,23,-16,-2
-3,-2,-4,-12,18,24,19,-10
22,5,31,33,-14,-32,-1,0
18,1,-56,-45,-24,35,-1,-19
-41,-20,-66,-36,-53,1,-11,0
6,16,51,33,-10,-56,-3,11
6,18,9,10,21,15,5,5
6,21,-12,11,24,14,-2,3
4,-11,-43,-57,-8,-70,-11,1
25,-8,45,31,-36,55,0,7
-19,-23,-104,0,77,4,-7,-1
21,-8,-4,8,-39,-9,3,-15
-78,-4,11,-3,-49,-25,-2,-14
-21,7,30,14,-39,-15,5,12
4,7,-14,3,36,-6,-6,-3
-1,-5,35,-3,-5,-19,-2,9
44,17,-55,-21,-12,10,-3,-10
-13,7,33,13,80,-30,-3,-8
-50,-75,-10,11,-74,-49,-22,-41
-20,-7,-56,-44,-25,-3,-13,-3
22,13,11,-3,26,-13,-7,15
12,17,15,19,1,11,3,10
11,11,16,12,-63,-1,18,13
7,10,0,13,17,8,0,5
27,4,8,-36,-6,0,1,17
31,-18,-6,14,11,-38,-9,1
-64,9,4,-22,-33,-22,0,-22
-24,10,20,-1,61,72,1,-15
23,5,-54,-10,-32,52,11,15
8,-11,1,0,-29,-31,-10,-2
-21,-8,-4,-9,-5,-25,-16,-22
7,-12,-5,-9,23,18,4,1
-3,-10,10,11,1,-8,7,-1
24,7,15,-4,-26,-27,9,34
36,2,3,4,62,12,-2,-1
-86,1,-55,-5,-31,55,-1,-32
-36,-28,0,2,45,-128,-38,-35
33,-7,-3,-17,-102,127,23,-11
38,46,-4,28,-4,-2,8,27
12,27,22,-19,-14,-24,-15,15
-34,-4,20,-12,5,-9,-15,-33
-80,-31,5,18,31,-2,-6,-26
-3,-7,-49,-5,-11,0,-1,-10
70,15,0,20,30,-5,10,30
-9,-26,32,15,14,12,-1,29
-8,-28,-6,-7,4,-28,7,-4
-36,27,-5,-80,-105,34,5,-21
-3,-14,-67,-32,9,-2,-9,-25
7,-10,41,-7,26,-19,-17,-3
-9,-3,26,10,22,24,0,8
-3,-29,20,16,22,3,-4,0
39,37,-32,20,94,32,17,6
36,55,3,13,-87,-36,2,17
20,-43,-9,-40,-70,-39,-18,17
-27,-16,-22,-11,37,8,-4,-9
-116,-11,16,7,19,-15,-9,-39
16,-3,-25,11,23,32,4,-10
59,27,40,23,16,30,14,18
-28,11,7,-6,-3,-5,-1,12
-6,-26,4,15,29,-42,-20,-21
-19,-28,-79,-34,-44,76,12,-4
9,1,10,14,7,46,13,2
38,36,22,0,-15,-38,5,0
4,2,31,8,18,-24,-22,-15
19,6,-43,-15,-19,0,-5,12
-15,-43,-29,16,15,-24,7,15
24,-9,36,-17,-10,-35,-7,-3
-8,-1,18,-7,-5,116,20,6
10,1,-27,29,29,-58,3,21
-19,68,9,-8,34,25,-4,-26
-97,29,-6,-15,-3,-37,-26,-44
7,-14,15,-36,-15,-4,-17,-9
-2,-52,-36,-10,-44,-25,-6,-4
16,-61,-90,32,38,2,12,12
19,2,2,24,40,-44,10,37
-13,16,3,0,9,70,12,18
-1,35,63,18,-53,27,-6,-14
-15,23,-37,-26,-23,-46,-11,-33
6,4,-18,-21,80,1,-3,7
-14,-54,-16,-5,-33,4,-18,-28
11,-23,-12,18,20,-27,-1,7
-5,0,7,-17,-33,-14,11,0
-21,19,14,-7,-1,7,13,1
11,-24,-9,10,24,-27,-8,24
25,-19,28,15,63,-5,4,20
83,76,11,44,-13,127,35,6
-85,64,2,-40,-15,-22,-7,-48
-101,-91,-32,-61,-128,-45,-45,-47
19,-21,-74,-3,45,-4,-2,7
47,-10,-22,4,10,1,5,23
-17,-9,-5,-1,18,0,-3,5
0,14,2,-10,0,6,-2,-4
4,1,11,35,33,-17,7,1
9,16,19,0,-16,15,6,9
9,-7,16,35,62,-8,-5,3
3,-14,-25,-69,-92,35,-6,-1
-8,22,3,14,-7,11,13,-2
9,8,-22,26,17,46,-6,-19
-13,6,-3,4,34,4,-13,-16
-37,-52,12,-3,-10,-11,-9,15
28,-13,9,-11,58,-85,-4,15
-21,5,-34,3,-55,95,29,3
11,41,16,13,-16,-76,-8,-12
45,6,61,12,55,107,-15,-11
-20,-4,16,-5,-23,-74,-15,-5
-70,0,-29,-32,-98,-23,-2,-7
-25,-18,-8,31,-34,-37,-25,-17
36,17,41,19,43,-15,8,12
28,-23,-19,-9,-6,28,3,12
18,15,6,6,27,-8,-3,12
13,6,-24,-21,7,-24,-1,10
28,2,25,6,3,34,13,6
-17,-8,-14,34,50,-32,2,-1
17,-16,-17,-2,47,0,3,-2
7,53,25,-46,-128,97,10,11
18,-19,4,16,-7,-52,-30,-8
-15,-41,-25,-20,0,-15,-9,-18
-29,-9,8,-12,35,-21,0,-16
14,9,25,31,-6,-23,8,13
19,19,-3,5,-44,-4,-2,16
38,-5,17,7,30,-1,-1,22
19,11,-12,-3,-1,-19,0,5
-99,19,20,2,15,39,4,-23
48,-10,13,-4,-49,-32,-10,-9
7,-12,-53,8,37,-14,-12,3
-33,-21,-35,-16,3,-33,0,6
25,-16,1,-3,3,46,18,3
17,10,15,27,-22,-26,-1,-6
-15,2,2,0,-19,14,-2,5
-16,-37,-10,-17,13,1,6,16
21,11,39,20,10,1,-4,7
51,2,-18,4,-28,0,-2,-30
-22,28,6,-19,8,25,0,1
-61,14,19,-8,15,-80,-13,-1
-36,-12,-93,-25,6,28,-11,-21
-24,-16,12,-11,27,15,-7,-26
-11,-3,1,-9,-85,-43,3,-2
20,9,9,23,-4,-17,3,12
3,-17,5,5,19,42,-11,-8
-32,-27,-7,-2,-7,-20,-5,5
10,-5,28,42,-4,-82,1,8
-16,-3,-32,-37,79,127,38,8
53,62,44,16,-31,-9,8,12
-41,26,-39,-38,7,-14,-14,-7
39,-30,-29,-29,-20,-21,-16,-10
-23,-27,-7,-37,-17,-5,-2,0
64,-20,-19,4,-6,-13,3,-6
-96,-10,17,30,1,51,4,-9
44,9,7,-7,-5,-4,4,17
-23,9,-17,-12,-11,-9,-7,-1
-5,-10,65,-8,18,-20,-26,-45
-6,-6,-56,10,15,-9,0,-4
16,9,-1,8,-29,-1,25,19
52,-1,2,-4,-29,21,5,31
6,-16,8,3,24,-12,-4,-16
-67,-20,-5,-12,-48,-4,-16,-44
-7,44,23,17,79,-47,-5,3
3,3,2,-4,-45,48,3,6
-11,-16,-15,-51,-45,-27,-6,-14
7,-9,-26,-13,-14,-12,5,16
5,-16,-4,9,38,-2,-7,-5
-3,-1,-4,14,23,-58,-8,-13
-9,0,30,-17,-59,118,27,9
-19,-28,6,19,51,-39,-4,5
29,34,3,1,-24,1,7,13
50,23,-23,-19,-5,-10,-14,1
-67,-4,11,-25,-39,-30,-22,-26
44,-15,16,3,18,-22,-18,-38
-28,-55,-17,0,20,-48,-11,-9
2,3,20,-1,74,127,29,14
16,28,29,3,-82,-15,7,17
-3,-7,-15,-19,-55,-20,-2,-2
11,-2,-5,1,37,12,-5,-6
14,1,4,7,45,-36,-12,1
-57,-18,2,-24,-45,21,2,-7
-46,1,3,-5,37,8,13,-2
15,12,13,30,-6,17,5,4
8,12,-15,-18,-11,3,-2,-4
47,-51,-25,23,-8,-17,-15,6
-15,-19,-4,-2,39,-28,-17,2
-59,16,21,-23,-42,-24,9,-14
-21,33,-46,1,-13,-14,-4,-15
3,32,39,-22,-5,34,-10,-6
9,-10,42,1,11,-26,-11,10
30,-5,29,-12,-37,20,6,18
21,-27,-11,35,57,-6,-5,3
-17,2,-20,9,-42,-57,6,1
-52,-18,-12,-20,-15,99,20,-12
47,-17,-16,4,16,-16,-5,7
-18,0,28,22,12,9,-4,-11
-46,16,-15,-21,-12,-5,-1,-12
4,-8,-35,-3,1,-49,-11,-14
13,16,20,-16,-26,4,-1,10
-25,-1,7,15,4,12,-1,15
14,-7,-4,25,3,10,6,9
-25,-10,18,-18,16,-14,-4,1
2,3,-36,-19,-2,-32,3,4
20,-15,-6,-18,-7,38,1,-2
-7,-3,10,40,38,-40,4,3
9,37,50,-10,-6,22,-15,6
-5,-17,-128,-34,-17,-84,-13,-12
-16,-35,0,-28,-109,34,31,-10
2,-33,32,22,49,-5,7,-6
50,51,-14,3,-49,23,1,19
-27,98,74,13,49,-14,-14,13
-23,-46,-53,-15,-6,6,-6,-5
-20,-32,-25,2,-3,-13,-3,-33
-23,0,41,-9,-11,-30,-15,-18
80,-6,-14,61,53,-29,8,6
3,-21,-23,-55,-25,-13,4,37
45,29,50,-4,-33,61,6,7
-110,-12,-82,-15,4,-33,-25,-37
14,16,-6,15,8,-21,-6,1
-29,-12,20,8,6,-28,-1,11
12,-9,29,-13,-31,-38,-1,10
20,-2,-3,11,70,127,21,15
36,14,21,85,0,-30,10,10
-8,32,-10,-11,-19,64,5,-12
-12,-28,-49,15,8,-46,-18,-11
-20,-15,10,-6,-57,24,-3,-8
-7,-8,7,-8,24,-52,9,17
-38,45,55,30,30,62,-1,-21
13,16,-6,5,53,-24,5,-2
27,2,-29,6,-1,-9,-13,-3
22,-31,-26,-50,-38,65,-7,-2
-13,-10,25,8,10,-89,-1,4
-58,8,5,10,-26,1,-1,-38
61,2,-10,-2,-9,23,4,-3
-20,-24,14,-13,14,-9,-5,4
3,-11,42,-4,-5,-45,-16,-3
9,-23,13,33,34,92,31,17
8,37,13,10,-4,-18,16,34
48,81,31,29,30,36,14,1
0,-47,-19,-39,-80,-15,-28,-28
-32,-67,-41,-7,38,10,-22,-21
29,-17,-3,8,20,-61,2,25
71,20,-10,-3,14,72,22,23
-53,59,58,-5,-8,9,-7,-28
-7,-23,26,-1,-36,-67,-29,-24
-33,-14,-62,-12,42,21,-4,1
11,19,18,17,-2,-4,11,21
13,-6,7,6,4,3,-1,0
29,-5,-5,-23,-26,35,6,3
-4,-29,-3,16,22,31,-6,-6
-31,3,-28,-6,-13,-3,-1,2
12,18,-1,4,17,13,3,4
-7,5,33,-5,-30,-36,3,24
4,-10,-38,11,3,43,2,-12
-27,-21,10,-14,48,-75,-15,-29
5,11,-3,27,-86,58,4,-5
5,7,-15,-18,59,22,1,-7
-19,-6,1,7,-78,-49,-12,-7
-13,1,-5,-30,-28,73,18,11
38,22,-7,-21,6,-20,-8,-12
-49,-1,28,2,30,-35,-24,-25
11,-22,-92,-14,-20,30,5,4
-5,-9,10,1,6,16,10,9
19,-39,-24,-7,41,89,10,9
37,11,14,7,-15,-76,0,9
-9,59,30,0,-34,6,-4,9
-8,-3,-37,-17,-9,-16,-11,-11
-17,-19,-1,3,-6,1,5,-12
-17,-10,-9,1,16,-10,-1,-1
-9,15,31,42,17,-1,-5,8
-3,3,-14,14,24,31,-2,0
25,7,-10,4,12,-4,4,-14
-45,-27,8,-23,12,-65,-6,3
44,-19,-8,22,-43,28,9,-8
38,29,3,0,25,27,4,0
-54,13,-26,-27,19,-8,-22,-16
1,-24,-17,-13,-38,-62,-16,-2
2,-20,-43,-3,-46,-20,9,5
4,-30,6,-10,-7,-21,2,13
30,-1,28,44,95,19,3,25
13,15,-2,-73,-45,-43,-20,-18
-48,31,-35,1,-61,-32,-2,-18
-51,-13,79,8,0,-28,-1,-9
16,-36,-22,-2,31,47,14,14
-9,-19,-4,7,7,12,-10,-2
68,35,1,-15,-24,-18,3,27
26,25,30,12,-13,-54,-12,-2
-128,5,-28,12,48,25,-7,-43
7,18,64,-29,-79,40,13,10
36,7,29,7,46,-76,-18,14
61,5,-11,10,-21,37,-2,10
-4,-11,-105,-46,-42,1,-8,-21
-5,5,-7,-32,5,-27,-4,-12
0,-31,11,3,37,-7,-5,3
11,1,10,5,-13,-16,5,16
16,-4,21,69,-20,38,16,33
60,14,51,-37,1,-58,5,16
-37,34,-33,44,65,32,3,-15
-122,-28,-73,-65,-76,-27,-23,-57
8,-12,16,-43,6,-17,-19,-9
33,-14,-17,-3,17,5,10,22
19,-21,14,20,-7,-44,8,14
8,15,9,16,-28,31,2,-12
-10,15,-15,-15,24,16,-12,-20
-56,8,52,30,63,53,-5,-12
15,-34,-47,-46,-27,-11,4,15
32,-20,-25,44,15,-23,11,25
7,26,-10,-38,45,45,1,1
-35,-16,-13,2,-35,-20,-5,9
-16,-13,-27,-46,-47,-5,-10,-27
10,16,78,36,9,-21,-2,-19
14,14,-17,19,7,46,12,7
-3,7,-27,-25,-5,17,3,-2
1,-21,25,-9,10,10,-7,-4
-14,-11,8,-33,-47,-10,2,5
6,-5,-45,-8,3,0,-4,5
-3,-1,-2,25,34,-128,-14,0
26,0,5,6,-22,127,33,23
42,32,-20,15,-48,15,5,-7
28,-6,-18,-81,-61,-37,-20,-23
-128,-34,94,37,27,-63,-29,-64
52,-18,-61,14,21,-16,3,0
23,-2,-2,13,25,3,5,15
23,-34,-32,19,42,-34,9,25
46,-5,-4,-20,21,-32,5,25
33,56,12,-44,-116,-23,-9,11
-34,9,2,11,-9,6,2,-15
-6,1,-8,1,-24,-8,6,4
-5,-16,43,12,35,4,2,-2
-19,-33,13,3,13,-18,-19,-24
-9,1,26,24,42,-107,-28,2
-8,6,-10,-37,-30,127,52,-2
47,16,8,77,-3,-31,10,13
-12,24,-50,-21,-41,-55,6,16
-3,-24,-25,-84,-14,-17,-28,-13
-67,-47,-75,-27,-26,-20,-24,-33
-38,-9,34,13,-6,4,4,-21
1,-10,18,26,16,-24,-4,7
38,21,21,17,20,40,5,15
-10,40,2,2,-18,-9,-4,12
5,-30,-39,-39,-12,-2,-10,1
31,-13,40,3,15,-17,-4,2
2,8,-8,32,-3,33,15,8
-31,37,30,-12,-16,-65,6,4
-20,11,7,-27,-35,16,-10,-8
10,-28,-33,0,14,1,-4,-1
-21,-14,-47,-28,-26,-4,1,-4
-2,-23,24,6,-5,-18,6,0
24,22,75,13,27,7,-5,9
4,25,-16,18,-15,-60,-22,-1
-6,-38,-61,-46,11,0,-19,-23
-1,-19,-1,10,-23,127,21,-2
25,-7,13,9,-53,-62,9,6
-82,25,28,-5,1,-26,-4,-4
63,22,-17,48,68,-20,-4,25
-28,-9,73,-7,-60,19,4,4
-3,-22,-128,-36,-25,-18,-9,-23
-4,28,7,-23,-4,-22,-7,5
2,-28,10,5,31,-22,-12,4
-12,-23,-21,-9,-4,14,-12,-9
51,13,9,25,16,-6,6,3
9,-1,-9,9,10,-13,10,10
-69,-1,14,-1,-1,47,22,-5
73,2,8,5,18,1,-2,-4
-50,-13,-2,-29,-17,-29,-19,3
22,17,-1,26,-23,-25,-6,8
-8,27,11,5,-16,19,11,-4
-6,-19,-32,-17,4,-37,-3,-11
-4,-33,2,25,-16,53,1,-4
-9,9,68,24,15,-37,-6,8
28,-18,-38,7,-4,6,10,30
24,30,-4,-6,-27,-32,-10,-6
-56,15,32,-30,-21,-2,-14,-32
-12,-9,1,-2,26,17,-10,-13
-10,-14,10,10,15,-10,-12,-8
26,-7,-3,-9,-5,-10,0,13
-20,-9,-5,10,32,-13,6,-2
-6,-7,-11,39,22,113,17,-11
32,22,39,6,11,-27,-7,-5
21,24,-10,-12,6,-15,3,11
-10,-11,-35,-41,4,-51,-10,5
11,-4,38,-17,-74,12,-1,9
4,-18,1,22,60,-55,-10,-2
-111,-16,-9,9,-43,22,9,-41
2,67,-55,-41,-34,13,5,-2
-3,-49,30,-15,66,-43,-24,-11
14,-60,-104,-18,-78,-30,-15,-1
15,-1,-6,35,35,-8,9,10
13,17,-20,-47,4,-2,7,13
9,-2,30,33,32,30,0,9
10,-56,25,8,-14,-26,-13,10
-2,36,3,28,-17,71,26,6
-31,62,25,-19,9,9,12,-12
-17,-39,-30,-13,-7,-2,-14,-19
-15,-49,-86,-59,-53,-45,-30,-14
12,3,17,8,34,44,4,11
37,7,22,17,-2,-1,17,13
-48,-38,6,23,23,-18,4,-7
32,-8,12,6,-4,57,2,-5
33,50,26,-19,-20,-54,-14,-8
-96,50,-14,-25,5,22,-5,-19
-32,-50,-1,-38,-27,24,8,-11
42,-21,-16,-29,-51,8,-13,7
92,14,11,18,66,-34,-9,18
-50,-4,-6,6,10,61,3,14
-27,-17,-1,4,-57,28,5,-4
-25,-7,6,-8,-1,-20,-7,-28
8,18,5,-6,14,-79,3,-3
6,-34,11,17,12,44,12,8
17,5,18,16,56,3,15,20
-6,14,-4,9,-16,1,-1,2
12,-16,-72,-45,-31,-51,-16,-22
-7,4,-21,33,11,53,-3,-2
46,36,74,-30,0,-3,1,33
-74,-35,-39,-11,-4,-23,-11,-17
5,24,7,22,-6,-20,-8,-47
-15,48,2,3,16,-53,5,-2
-9,-68,35,-10,30,40,-5,-8
-14,-33,-17,-14,-95,0,-15,1
26,-9,9,4,44,7,-3,6
