Channel_1,Channel_2,Channel_3,Channel_4,Channel_5,Channel_6,Channel_7,Channel_8
1,1,28,31,-42,-3,5,4
-10,-11,-23,8,-2,-2,-6,-9
-3,-2,-2,17,23,-2,3,-2
-5,17,71,25,23,6,-6,-7
5,-7,-10,13,-9,-22,5,8
6,-22,-44,-45,-42,22,2,4
23,70,31,18,8,-16,-4,3
-12,-8,5,5,38,43,-10,-14
-1,2,19,62,36,-14,8,2
-6,-11,-10,-39,-34,-19,-3,0
-21,-54,-41,-102,-96,8,0,-8
28,45,-11,-3,14,20,8,18
-5,7,-14,11,24,-33,-13,-4
-10,-12,37,41,19,30,6,6
-12,-31,-22,11,-4,-78,-8,-2
39,92,123,70,36,44,4,14
-26,-19,-17,-92,-100,-21,-24,-37
10,3,-15,47,73,-20,1,7
-10,-19,-16,-16,-65,0,1,-5
-8,-14,-11,3,-17,-16,-1,2
4,-2,6,119,127,32,5,7
2,3,-2,-36,-65,-3,9,4
-4,-2,-5,-55,-43,-23,-9,-3
-8,-12,-27,-77,-68,-65,-21,-12
-6,-15,18,17,3,-27,2,4
-1,0,-3,-41,10,-70,-20,-2
5,3,-7,27,-28,31,9,0
-9,-6,2,-60,-10,-2,-7,-8
-2,3,11,2,24,-4,-4,-5
-1,1,12,4,-1,-10,0,4
-5,-25,-42,-41,-9,1,6,14
13,37,68,-7,12,-1,5,2
-4,1,-25,72,27,-16,-22,-16
-14,-14,7,35,27,-40,-5,-5
16,51,60,-21,95,60,11,15
-11,-27,-50,-16,-76,15,-14,-21
-14,-25,-11,-5,-32,-15,0,-10
11,32,23,75,39,-3,11,9
6,-8,-15,-80,69,25,4,-1
0,11,19,16,-37,0,-2,-7
-7,-13,-24,16,15,7,-1,-4
5,2,1,26,-9,-25,-11,-2
0,-3,25,6,54,70,2,-8
-1,-14,-38,-42,-7,1,7,5
-7,-15,1,7,-15,-27,-15,-12
-8,7,22,-31,-68,2,-7,-15
0,3,23,3,42,6,6,9
2,15,10,21,6,8,5,3
-10,-43,-62,-5,20,-15,6,3
16,7,50,-4,-41,3,6,13
19,71,-34,6,23,27,-3,6
-15,-6,9,43,-17,-3,-10,-8
-7,-21,-34,-1,-40,4,13,6
36,45,64,48,-49,9,15,27
-13,-18,-77,-63,-23,-28,-13,-10
-25,-44,-1,-54,1,37,-7,-6
21,63,89,43,47,-2,23,15
-26,-55,-84,7,8,-29,-31,-29
5,4,17,70,37,0,2,2
-10,-10,-25,-82,-47,-3,-3,-4
3,3,16,32,11,4,9,8
1,2,24,15,-14,-19,6,4
-9,-18,2,-42,-2,14,-8,-9
-13,-14,-56,37,18,-14,-3,-10
-7,-16,7,-25,-2,-5,-11,-25
6,22,10,-11,-12,-16,-3,3
2,-7,28,6,27,22,0,12
4,-5,-10,19,5,15,-2,14
-1,-12,58,-45,-39,-9,0,-3
2,3,-36,4,15,5,7,8
-5,-42,-1,25,33,0,1,5
-25,-14,-8,-27,-39,-17,-9,-11
10,5,-2,-36,8,24,-3,-2
5,12,6,18,-22,-11,-9,-7
-12,-8,-13,-26,36,-9,-9,-8
3,4,13,-33,18,35,-1,5
-15,-6,-27,-21,-33,-18,-6,-13
6,-5,1,31,3,1,5,5
7,16,-25,4,-40,-12,0,5
-5,-10,-9,-70,-14,-10,-4,-4
-12,-15,24,-55,-14,-26,-17,-13
-2,-6,-6,23,32,36,13,3
1,1,-97,-12,2,34,1,6
23,35,110,25,-32,-48,4,8
-20,-46,-67,-62,-14,53,-7,-13
-4,4,16,25,31,20,1,-5
-4,-7,-1,9,0,-1,0,0
3,1,8,37,9,0,1,-2
-9,11,18,15,4,-10,-3,-10
-5,-30,-69,15,12,1,-1,1
16,42,94,13,26,-50,-2,9
-8,-32,-10,-2,-9,102,1,-12
-5,-33,-2,18,-23,-3,-6,-5
-2,1,-41,-4,34,4,1,-5
4,19,25,-128,-60,-25,-6,-2
-1,-8,-9,-10,-13,4,-6,10
-3,12,-1,29,-2,4,-1,-7
-4,4,-4,19,28,-28,1,-5
-1,-60,20,71,43,53,16,10
-2,-8,-36,-48,-39,-55,-4,0
-11,28,-19,-66,-89,7,-25,-20
-11,-25,24,16,84,28,-2,-7
-15,-27,-128,21,-7,-14,2,-1
-1,-13,1,-31,-15,9,10,2
1,8,13,-54,-17,-14,-12,-12
-2,1,-4,7,-1,-1,-11,-12
0,8,11,36,17,7,7,6
3,-4,7,-5,-22,-4,0,5
-22,-17,-44,0,57,-17,-21,-21
7,17,4,84,30,-26,4,6
5,-5,-27,-69,-41,39,17,12
-3,-1,30,-33,-16,18,1,2
1,-1,-44,-42,-2,-10,3,0
1,8,8,7,6,-3,0,-6
-6,-18,-2,12,22,50,7,3
8,42,20,31,15,-41,-1,0
1,30,22,42,64,44,11,8
-5,-38,-30,-22,-56,-31,-25,-10
-2,-33,-128,38,32,-22,-3,0
10,5,-1,-31,-13,-4,-4,5
-2,0,14,-30,25,-37,-9,-2
-11,-5,-29,-58,-58,-44,-9,-8
0,2,8,68,16,43,10,1
5,1,7,10,20,15,7,-2
-2,-5,0,-62,-10,-19,-10,-2
-7,-18,-3,-2,9,-1,2,-2
-8,-10,-42,7,18,-19,1,2
-5,22,65,12,-30,-8,-12,-10
5,17,-13,-1,-27,-29,-16,-6
-13,-9,-15,18,47,-5,-6,-15
-2,-9,-27,7,21,34,6,0
-10,-7,42,-22,-41,-21,-6,8
-1,1,-12,-35,-6,-2,-2,2
-10,-36,-7,-27,-43,-6,-3,-5
-1,10,56,-10,5,-4,-4,-5
-7,-30,-43,10,32,-3,5,-2
19,31,30,42,8,-7,6,8
-4,-1,-60,-3,-11,-33,-13,-6
-8,-9,12,-35,-16,4,10,5
12,17,7,-5,18,91,0,-5
-9,-21,-8,-16,-13,-77,-19,-12
0,4,16,46,-1,16,1,-1
-7,-5,-2,-55,-26,-17,-2,-3
-5,-12,-22,-18,-20,-12,-8,-3
0,-2,2,-1,-7,-14,-4,-1
-2,-1,-2,2,23,-25,1,-1
2,-13,-22,2,3,1,3,12
13,27,67,67,35,25,11,3
-8,29,43,55,60,8,-17,-27
0,-21,-90,-128,-128,-30,4,-3
5,-20,-51,-88,24,-8,-11,20
-12,-20,-5,13,69,0,-16,-15
-8,-7,6,5,3,19,-5,-9
-4,1,17,40,10,-1,7,3
10,16,21,33,6,-8,13,11
6,0,2,1,-14,-11,1,3
-4,-5,-11,0,23,4,-4,-6
4,3,6,10,-27,13,10,4
-4,-15,-2,40,81,-27,2,0
5,17,12,37,-52,3,2,-3
-8,-11,-34,-112,-73,-26,-12,-2
6,27,23,-36,-8,-1,2,2
-3,9,62,-18,18,6,-6,-9
-16,-38,-128,5,-7,-1,-8,-8
2,-31,-11,23,24,7,5,0
4,15,19,42,13,-44,-1,1
-5,-3,23,-32,-28,47,1,-1
-4,-9,-12,-20,3,6,-6,-1
1,7,8,16,19,-29,0,-6
3,5,10,17,-4,10,5,5
-4,-6,-4,11,6,-12,-3,1
-7,-7,-9,15,-3,-38,-2,-8
-1,0,-2,3,25,98,9,-5
2,1,2,20,-14,-2,2,2
18,23,39,14,34,9,10,11
-11,-5,34,-20,-31,-12,-10,-10
-16,-28,-45,-72,-57,25,-11,-20
-8,5,0,-24,-6,-31,-16,-10
6,4,7,22,36,-11,6,8
-2,-5,-6,7,31,32,4,1
-1,-5,-3,36,-1,11,3,3
2,7,27,44,2,17,7,4
-3,0,6,4,-2,25,3,-12
-6,-9,0,13,6,-78,-2,9
2,2,-44,-51,-72,32,-1,2
5,-18,2,-85,-23,-13,-10,-8
6,29,46,18,23,-8,-3,0
1,-3,-19,32,49,19,1,0
-3,10,15,18,1,29,-3,-7
-2,-17,8,6,-12,3,2,4
-2,-7,-49,10,6,-3,-2,-2
1,0,-19,23,31,-9,-6,-10
3,0,-2,44,28,28,13,3
-10,-7,9,-95,-113,-23,2,8
1,-8,-15,1,55,14,-9,3
7,14,-57,-38,-1,-27,-6,2
-9,-4,6,-8,-25,9,-7,-14
-9,-2,24,16,9,28,-5,-7
0,2,8,30,28,-16,2,3
-7,-22,2,12,1,28,3,-3
-10,-22,-20,9,57,-3,-5,-2
14,40,72,-4,-67,2,6,8
16,40,15,-7,7,38,7,8
-8,-6,-5,-12,3,-15,-10,-1
-4,-17,9,-21,3,-9,-7,-5
-1,-6,-51,14,-5,16,4,1
-4,-10,-6,-9,-14,13,-2,0
-7,3,18,9,9,-28,-13,-15
-7,-11,11,-2,3,42,-6,-6
0,-6,16,21,13,0,2,1
3,17,52,32,24,-15,4,-2
12,41,4,39,-2,14,10,7
-1,-15,-63,-42,51,-28,-10,1
-6,-10,-4,-2,-93,-40,-14,-7
-2,-12,4,-128,-92,-1,3,0
1,-1,-18,-37,22,8,-9,-4
3,7,-2,24,34,-1,-4,-3
-2,-5,2,27,9,-24,-4,-8
6,-9,-16,26,15,3,9,9
2,30,39,32,56,-11,-5,1
1,10,89,51,-15,-30,12,9
3,0,-75,43,-11,36,11,0
-16,-43,-64,-128,-106,-67,-24,-23
-5,-11,-52,4,-3,-16,-12,-11
-4,4,-5,28,25,-9,-7,-6
-1,5,7,0,13,0,0,4
1,-2,2,19,21,10,3,4
1,3,27,26,7,-7,5,-1
-2,-4,16,-5,-41,21,2,1
-1,-12,2,11,56,-8,2,4
5,12,3,-37,-37,0,-11,-13
-23,-37,-60,-54,-52,-31,-23,-29
2,15,62,67,88,-35,-7,20
20,36,9,48,27,104,35,18
-18,-47,-67,-34,-41,-4,-19,-18
-11,-24,-35,-115,-45,-16,-8,-7
0,-6,-14,-20,-9,-23,-1,-2
1,3,8,17,15,-9,5,3
0,17,-20,28,18,6,2,0
0,-11,63,63,26,-3,1,2
1,7,-76,34,56,-36,-2,5
-2,3,-43,-65,-58,-28,-10,-9
-7,-19,36,5,-17,31,7,-1
-1,-4,15,14,29,34,2,2
-4,11,-4,0,1,-18,-1,-2
2,5,8,18,24,-19,-1,1
3,6,6,1,-9,18,3,4
-4,-42,-23,3,-7,-14,-1,0
-7,-20,-21,5,0,26,-1,-4
19,65,-36,-1,19,1,5,9
-18,-23,82,-18,-26,-50,-13,-13
-9,-15,-11,-24,-17,-6,-3,-3
6,11,-40,16,20,-6,1,6
6,-4,3,-32,23,-5,0,7
23,58,104,47,10,-5,6,6
-24,-46,-128,-13,-45,-10,-21,-23
7,-14,69,-31,-4,22,20,6
8,18,-21,-49,-15,-44,-8,-3
-22,-42,9,-6,2,24,2,3
-7,-16,39,8,-31,-6,9,0
9,8,20,-5,-16,0,-6,-8
-16,-17,-36,22,34,-1,-14,-22
11,30,49,-14,5,5,1,6
-7,-41,-54,-26,-8,-5,-5,-2
-9,-51,-86,32,11,-17,-3,-2
32,114,110,23,21,74,23,15
8,46,8,-24,-42,-11,-1,3
-24,-72,-7,-36,-48,-28,-15,-12
-7,-20,2,0,16,7,-4,-2
-2,-4,-25,17,40,8,3,-1
-8,-19,34,19,-18,6,-6,-10
10,30,-13,19,36,-1,10,9
-9,-8,-28,-27,-12,6,-11,-3
-4,-17,-9,-2,-28,-39,-6,0
-7,-7,-12,-36,16,35,-8,-5
0,19,24,13,18,4,8,9
-9,-46,-37,-8,-23,-10,-9,-12
-5,4,26,58,30,4,-2,-5
15,43,60,30,38,-10,-7,2
1,5,-102,-109,-76,-43,3,4
-6,-8,-9,-11,-53,-22,-1,2
-7,-12,-4,2,24,-40,-17,-16
2,10,73,18,9,63,12,-4
-1,9,-44,30,47,1,1,2
-10,-16,-38,18,9,0,2,-7
-16,-16,12,-17,-49,1,-10,-12
-10,-4,13,-10,32,-13,-1,-10
11,18,21,70,-6,2,-2,2
5,14,-22,-82,-44,-30,-7,-1
-3,-11,-11,-17,8,21,-9,-3
-12,-5,-74,17,1,3,2,-6
1,-26,127,90,88,-26,-1,7
23,70,-5,21,-4,124,24,16
-3,-54,-77,-98,-44,-26,-12,5
-5,-12,0,-1,-1,-22,-5,-10
-14,-42,-56,3,16,-12,-13,-19
4,38,58,1,0,48,3,0
0,25,84,6,-7,-3,-5,1
-9,-24,-114,6,-7,-28,-5,-6
2,2,-3,15,6,24,10,6
2,0,-7,13,16,6,6,4
-5,-8,-3,-14,1,14,-5,0
0,-17,-35,14,74,-22,-4,0
4,39,76,-7,-75,26,1,1
-2,-19,-21,0,-17,-39,-10,-4
-11,-15,-25,-48,-31,8,-12,-10
0,-6,-14,-66,-63,-49,-5,-4
-5,-8,-24,11,42,-10,2,-2
-1,6,39,23,17,25,15,4
6,-29,-56,34,20,18,9,13
4,50,35,-7,15,10,-10,-9
-6,7,1,74,32,20,0,-6
-5,-34,-99,-88,-74,6,-3,-5
-8,-14,25,-93,-36,-60,-26,-16
-6,-18,-27,6,-16,16,1,-5
5,28,75,37,23,21,7,7
-3,-19,-76,24,16,0,6,1
0,15,16,34,39,-2,6,4
4,0,36,79,-7,3,7,11
12,26,33,-10,35,-2,-2,-6
-25,-48,-128,-50,-53,20,-10,-13
-12,-32,-16,-49,-31,-59,-19,-15
-6,-3,4,4,-13,51,1,-3
0,8,9,26,16,-18,-5,0
1,4,9,1,-6,9,3,2
2,-1,2,0,4,1,3,1
1,6,-18,-3,16,-1,-2,-1
5,-3,-18,34,27,-25,4,6
-4,17,24,2,-30,49,0,-1
-3,17,56,-33,28,15,-4,-3
-1,-17,-12,-6,8,-19,-2,1
-2,-11,-18,-33,-93,-8,-2,0
-1,-1,-31,2,15,-17,-7,-7
0,7,-17,19,12,-11,-3,-1
-6,23,50,-33,10,-24,-1,-3
5,-5,2,21,8,39,14,14
-9,-51,-53,32,54,-28,-17,-9
2,-20,12,-53,-77,-7,-7,-6
-12,3,-20,0,-15,-19,-11,-12
-21,-4,3,-60,-5,-5,-7,-10
-5,6,18,19,7,-11,0,-3
3,7,15,13,4,2,1,-4
-4,-14,-21,14,7,-1,-1,-1
-1,-3,28,14,1,8,4,4
10,34,28,31,17,-25,-2,7
11,5,0,-1,21,0,1,0
-11,-14,-6,-9,-36,-14,-10,-8
0,-11,-55,4,-40,-33,3,5
0,8,61,-41,-25,-12,-4,0
-8,33,-25,22,41,5,0,-6
-13,-70,-18,-15,-12,-4,8,13
23,23,5,-56,-17,-6,0,6
-7,9,-13,-39,-11,-23,-25,-23
-4,-4,-2,12,8,13,1,0
-5,-19,-3,-35,-91,-16,-7,-4
1,7,16,24,30,-5,4,1
3,6,2,44,37,41,14,6
0,0,-1,-7,35,-2,4,4
2,-1,3,7,-5,-5,-4,-2
-4,-5,-3,-14,-28,-11,-1,1
19,25,17,4,-9,-7,2,9
-16,0,2,8,28,-15,-5,-8
-16,-21,-8,-10,-27,19,-5,-11
4,-9,-9,-7,-5,-12,-9,-4
-4,-1,-5,0,5,4,-4,-3
7,7,-1,94,39,-33,7,10
0,17,50,48,-2,-39,2,1
-4,-43,-85,-128,-68,52,7,-7
8,26,53,-46,-33,-2,-13,-4
-5,10,-4,0,-8,-16,-12,-15
-5,-15,-17,13,7,2,4,4
8,14,36,36,17,-4,11,7
-2,-7,-15,5,14,0,-2,0
-3,9,9,13,11,-46,-5,-5
0,-2,-3,8,16,29,5,6
1,5,14,18,31,19,3,4
0,-2,37,-19,-13,5,4,-2
-1,-23,-41,40,-75,-21,-10,2
-12,13,-43,20,69,22,3,-4
1,2,2,-64,-30,-26,-7,-6
-1,34,84,-26,-28,-4,-8,-4
-15,-37,7,-45,-16,28,-10,-11
3,0,-4,9,11,-2,-1,2
1,3,35,28,0,7,2,3
1,-14,-73,8,3,33,6,3
3,17,4,20,14,-23,4,-4
-3,0,22,35,21,2,8,11
2,-35,-60,-51,44,27,4,-7
8,30,47,48,-78,-19,-20,-12
-20,-12,-18,-86,-52,-36,-24,-21
-5,-13,-120,-44,-1,-11,0,-6
1,-9,-72,35,63,-11,5,5
3,10,67,22,13,21,8,8
0,-12,28,48,34,6,2,10
-5,8,15,36,7,17,5,-1
-3,5,-7,-67,-54,-5,-10,-10
17,44,51,-4,12,-7,8,14
-11,-52,-20,-8,-24,8,-21,-12
-6,-23,24,-37,-43,-15,-10,-9
-12,-13,-34,4,17,36,3,-4
-4,-1,4,3,0,-20,4,1
2,2,4,14,4,-20,0,3
-2,-4,4,35,25,47,1,-2
4,-4,-1,19,23,9,1,0
0,5,32,-10,-70,-40,-9,-1
-1,-13,-20,-43,-14,24,-3,-2
1,26,-2,17,47,4,14,8
-1,25,53,17,-1,-13,3,-4
-3,-6,45,21,35,-16,-16,-19
-7,-36,-55,-110,-92,-10,-12,-5
-8,-5,-3,-2,-7,-5,-2,-3
-22,0,1,23,16,3,4,-8
4,2,12,28,27,1,4,2
7,17,18,12,7,31,3,5
1,1,2,13,7,26,0,0
1,-4,45,15,5,-17,1,0
2,2,-33,27,15,-5,0,1
-4,-4,-1,7,-17,-13,3,5
6,-8,-28,-44,-48,-15,-6,5
-1,-11,0,25,33,25,3,3
-9,1,21,-39,-12,-15,-11,-18
-9,-19,-22,-4,20,16,-6,-8
8,28,7,16,-4,-1,5,10
-9,-17,36,22,9,-32,-11,-3
-2,1,-7,16,9,-7,-1,-4
1,-2,-1,-34,-16,39,8,3
1,-5,11,-17,-8,11,6,2
-9,-3,30,7,5,-13,-1,-7
-3,-9,-100,12,7,-6,-6,-7
1,0,16,-11,-47,6,7,12
4,17,17,-3,18,-10,-4,-4
4,1,-10,4,8,-3,-2,-3
-4,0,10,28,28,-1,-2,-3
2,-8,-44,-19,-38,1,4,3
-6,-6,7,-25,-4,3,0,-4
0,-9,-8,4,35,-6,-4,1
-4,0,23,-15,-5,-17,-4,-4
3,6,17,12,-9,25,7,-1
9,9,-19,-7,1,-10,-3,1
-2,-5,-22,-2,-1,10,2,-4
2,16,106,17,13,15,5,6
7,27,-121,21,13,16,8,10
-1,-4,-56,-25,-28,-32,-9,-1
-22,-95,-7,-63,-38,-14,-9,-19
-7,-3,48,-19,4,15,1,-1
7,67,-41,12,33,20,14,19
11,16,16,20,-31,-41,0,-4
4,-7,4,3,-1,42,-5,-11
-21,-28,-17,-19,-10,-2,-24,-23
1,-5,3,-8,11,14,4,1
-7,-6,-3,1,0,-17,1,-6
1,1,7,27,8,4,7,3
3,4,11,-7,3,-1,4,8
-2,-2,-6,5,-12,-2,-3,-2
-1,-10,-14,-12,-5,-14,1,4
-1,-1,-11,14,5,0,-2,-2
-1,2,8,3,-13,79,14,1
1,3,-3,0,-5,-12,-5,0
-2,-6,10,-21,0,10,-3,-3
-3,4,12,3,7,-38,-4,-1
-4,-9,-7,1,1,9,-1,-4
2,7,0,33,7,-14,5,2
6,10,18,57,53,18,4,1
11,25,-48,-38,14,9,4,3
-23,-20,3,-122,-128,-31,-5,-14
-14,1,9,-9,-9,-6,-13,-16
-3,-14,-4,28,24,-18,-2,0
1,-2,-9,18,49,10,-9,-11
0,6,-3,6,0,-7,-6,-2
3,0,3,11,10,9,8,7
3,0,6,9,4,5,1,-1
-2,-1,-3,-3,-6,-11,-2,-2
6,-7,0,8,1,5,-1,4
-8,-19,-4,17,11,-23,1,-1
-4,32,11,8,11,32,5,2
8,18,49,-24,-50,-34,-3,-1
4,-22,-65,-10,-26,44,2,-1
-9,-9,36,31,53,13,-5,-4
-3,0,18,-3,-28,-11,-6,0
-4,-4,32,-58,-21,-13,-11,-6
-2,1,41,-1,3,5,7,-2
0,-15,-73,22,15,-5,2,2
3,1,8,12,21,8,8,13
7,3,-3,65,12,4,1,1
4,9,-14,-12,18,4,2,-1
2,5,38,-30,-55,-21,-11,-12
-4,5,20,-36,-35,14,-4,-2
-14,-20,-39,8,15,-4,-11,-21
-6,1,-3,25,17,10,-1,-4
-1,-2,-7,14,32,-17,-2,0
5,1,-11,-2,0,-17,2,5
3,0,1,1,-13,19,5,3
10,1,2,-22,-4,20,3,5
-1,0,3,-2,-17,-23,-6,-2
-8,1,4,12,-2,5,3,-2
-10,-7,1,22,11,-18,-2,-6
2,3,6,15,5,-7,-1,-2
-1,4,2,15,-2,4,-4,0
6,-4,-9,-30,-7,11,-2,3
3,2,-19,-17,4,-29,-7,-2
-2,-8,-1,3,-9,-12,-3,-3
-2,1,-3,-16,-26,-8,-5,-3
8,-3,5,-2,-14,4,7,14
-14,12,-3,5,14,3,-2,-8
-9,-11,-30,22,35,5,-6,-22
8,-14,-5,22,14,-6,-8,-8
-16,-15,11,-14,2,10,1,1
4,23,23,-31,-17,-5,1,5
5,18,-1,0,-19,-7,-6,-2
-2,-21,-37,25,32,4,2,5
-8,-17,5,-8,-15,-5,-2,-4
-11,-18,-32,-42,-12,40,-3,-4
10,24,12,17,15,-19,1,4
-7,-17,-9,-4,-10,24,-5,-6
6,-7,-13,15,-10,-38,-8,3
9,32,-9,-2,28,22,13,8
-9,-6,12,3,14,-30,-5,-11
-10,-15,21,18,-9,32,9,2
4,-10,-28,-77,-64,-14,-4,0
-3,9,44,-23,-44,-21,-15,-9
7,3,30,25,24,2,4,7
12,2,-63,36,21,24,-4,1
-10,-8,-92,-1,13,-23,-8,-7
-8,14,69,1,4,36,7,6
7,-15,10,-42,-9,-19,0,2
-5,-33,-84,-5,1,-12,0,3
19,36,57,-10,20,32,13,14
2,-13,-14,15,-19,17,-6,-6
-12,-8,16,-2,-4,-28,-9,-2
-7,9,-16,15,6,22,9,-5
-6,-19,-36,-56,-32,-8,-7,-10
0,20,7,21,49,4,-2,-3
-4,-10,32,-16,-24,2,-3,-2
3,-14,-104,-4,1,-10,4,1
5,6,0,-19,-16,3,0,0
-4,3,28,8,6,-10,-1,-2
-1,-11,-2,14,11,-11,1,1
-7,-9,17,8,-12,-8,3,4
2,-18,-12,15,7,-23,5,6
16,33,10,15,49,47,10,0
-4,19,18,2,17,-10,-21,-21
-14,-2,-30,-51,-52,-22,-16,-18
-11,-36,-39,-8,-35,15,-2,-1
-2,1,8,-12,-1,-3,3,5
-1,0,-1,5,13,11,1,5
-2,6,54,28,13,-3,4,-1
-1,-12,-94,-3,1,-10,-1,0
-2,0,-29,-18,-1,9,0,0
-2,3,36,11,28,-25,-7,3
7,-1,22,58,31,47,27,15
-2,-5,11,-31,-76,-8,-8,-12
8,34,-16,-22,17,-2,-9,-9
7,33,52,-19,-8,-1,-5,-4
-11,-42,-18,-31,-14,-16,-11,-6
-4,4,-4,16,14,8,-2,-2
1,-9,-10,17,20,2,0,3
-15,-5,-13,11,3,-1,2,-4
7,35,58,36,1,2,0,-8
5,-10,27,16,16,17,9,5
-8,-37,-128,-49,-23,14,-5,0
-5,9,14,8,14,42,2,-5
-3,-5,-9,7,1,-22,-6,-9
-2,-6,-23,-44,-52,-13,-7,2
-5,-1,4,1,-4,15,-3,-5
3,0,-14,4,1,1,5,6
-1,11,7,30,32,7,-2,-3
0,-6,-1,-41,-10,7,0,-1
1,6,20,13,8,-17,1,-1
-2,-2,-5,19,6,1,-2,-1
-2,-20,-38,-16,-11,-16,-1,4
-3,9,37,29,28,-3,3,1
12,52,63,69,37,41,18,16
-4,-26,-2,-25,-52,6,-19,-12
-20,-12,-120,-72,11,0,-18,-16
3,-9,-16,-19,-57,-53,-12,-5
-3,-6,-6,-14,0,47,-5,-15
-7,1,9,-2,8,-8,-4,-5
-2,1,15,46,31,-5,6,4
0,-10,-34,16,19,10,6,6
-2,-3,3,6,-4,-2,5,1
-3,-9,-10,-23,-23,-11,-3,0
-1,-1,7,25,22,11,2,1
4,24,66,11,6,-13,4,4
-4,-22,-18,-8,-39,-26,-9,-4
-5,-13,-33,-19,-10,15,2,-2
-4,8,-9,5,7,-29,-7,-6
-4,-13,0,2,16,-2,-6,-6
-1,-10,-5,5,3,67,16,2
6,19,3,-13,-7,-5,-3,-2
-4,1,6,-3,-11,-4,-5,-6
1,18,4,10,2,1,1,-1
-9,-5,21,-10,-9,-9,-4,-5
9,4,8,38,39,-14,7,13
-5,-2,-24,89,-3,-4,-8,-9
-11,-13,-28,-114,-43,14,-15,-16
-11,-35,-54,-99,-76,40,5,-6
2,8,-6,-4,-14,-76,-1,2
18,47,31,41,44,-10,9,13
-11,-3,16,6,1,-13,-19,-17
3,-12,-2,10,22,7,6,8
-2,-6,-7,24,35,-30,4,4
-6,7,4,4,-49,17,-2,-13
-20,-27,5,-16,-23,-11,-13,-12
-3,-5,5,2,5,-17,-1,3
-5,-10,-7,-22,-13,48,7,-5
2,17,10,13,23,-30,-3,6
11,42,54,5,2,21,7,5
-2,-15,-12,-9,-8,-6,-2,2
-3,-11,-3,1,11,-50,-5,1
11,9,12,15,-3,21,-1,2
-7,-11,-11,36,14,0,-3,-9
4,1,-6,-14,-29,9,-9,-5
1,-4,2,-49,-45,-60,-1,1
-3,-9,4,-46,-11,33,-1,-1
-4,21,-19,11,17,-3,-3,-4
0,4,50,15,-9,0,3,4
-2,-2,32,29,56,-4,2,1
-6,-9,-26,-11,-16,-1,3,1
1,-1,4,2,-12,1,-1,0
1,2,4,13,3,6,-2,1
-4,-11,0,5,-4,-18,-1,-3
-2,-10,-15,-16,-23,-19,-13,-10
15,31,28,27,15,-26,3,8
-4,18,46,17,15,32,6,0
0,-19,-52,-14,-19,-11,-5,-2
-9,-19,5,-43,-27,-8,0,-3
-1,4,0,-14,-13,3,-1,-6
-2,-7,1,33,18,-2,-5,-3
5,0,1,-2,33,-34,-15,0
-3,8,-48,-30,-36,58,4,-3
-6,-9,26,49,3,-7,-1,-8
-4,-15,6,-72,-19,-16,0,-3
-2,6,48,10,-11,-14,1,-3
3,2,5,28,21,5,3,8
1,-10,-60,16,1,18,10,2
-2,-3,-2,6,4,8,-1,-4
4,1,11,7,22,1,-6,-1
-7,0,40,35,1,-39,-5,-12
7,10,-13,-23,-13,43,-3,4
7,6,4,-10,-23,-43,3,11
-1,8,9,-15,21,65,1,-4
-14,-26,-5,4,-1,-74,-20,-6
2,11,10,-22,-23,51,7,1
-2,6,12,32,36,38,-4,-10
-4,6,-37,28,11,-13,1,-2
-7,-13,20,-7,-15,-8,-1,-6
-7,-39,-98,-115,-37,-13,-5,-3
5,5,8,42,12,3,-2,4
4,6,1,-1,-14,-21,-2,0
3,14,13,24,22,2,3,-1
-1,4,-9,11,-1,-1,3,4
-5,-13,-5,21,21,-1,-3,-6
-1,-24,-4,25,4,7,-12,-5
4,33,77,-8,-19,-10,-1,0
-7,-9,-9,-21,-12,-18,-6,0
5,-1,-48,-16,-10,-8,-3,-2
-1,-8,23,9,6,-9,-6,-1
-1,-4,-11,-6,-16,8,0,0
-1,4,4,-2,22,-16,-6,3
-5,-9,-4,-7,-26,-5,-5,-5
-7,-3,4,4,-5,4,-5,-6
2,4,17,20,13,19,4,6
-3,-11,-25,-19,-15,-30,0,5
-5,2,12,-15,13,14,1,-2
3,10,1,12,-2,4,-7,-9
7,17,0,-7,-7,-7,-2,-2
-4,-4,4,-46,-26,-31,-9,-8
-6,-15,-22,1,0,24,-2,-3
4,-7,9,11,25,-32,-1,2
-2,-8,0,-22,-21,22,4,-5
-4,-6,-29,-4,-22,-4,1,-2
-6,-20,-45,0,-2,-24,-1,0
7,37,38,49,27,28,6,4
-1,1,73,30,33,3,-1,0
-6,-6,-3,-50,-43,-15,-4,3
-7,-11,8,-27,-38,-10,-12,-7
-2,-36,-124,-22,8,-42,-13,-7
4,8,-22,17,14,13,-2,-5
-4,-6,-21,-27,-25,0,0,2
-6,-12,1,-2,14,28,-1,1
4,11,14,10,8,-47,2,4
-3,-4,16,-14,-8,21,1,0
2,6,8,-2,-5,-17,3,1
-3,-4,2,0,-6,-8,-6,-3
1,-2,-3,33,15,9,4,4
5,1,-2,40,-12,-9,2,4
-3,9,-7,-52,-46,12,-13,-9
-4,2,10,-30,56,-7,-3,-7
1,14,52,-2,14,-24,2,4
5,-5,1,-10,-41,5,4,2
-9,-19,-44,9,-2,4,-10,-12
-6,-12,-18,4,-4,-2,-7,-4
-2,-1,7,3,3,-4,-1,1
3,4,25,8,5,18,4,2
2,-3,-61,3,2,5,7,6
2,2,6,6,1,-24,2,4
-3,-4,4,4,-11,20,-12,-6
-8,-13,0,21,21,16,-11,-17
-1,-8,16,18,48,42,4,8
24,45,-16,-74,-96,-25,8,17
-8,-10,7,-36,-1,-18,-4,-8
-2,-6,-29,10,2,-15,-3,-6
-1,18,9,4,2,-8,2,-1
-1,-21,2,8,-1,-4,-3,0
2,0,1,0,3,0,0,2
1,-1,-16,37,10,6,1,1
0,-4,3,-4,1,1,-1,0
-3,1,0,9,2,1,-5,-5
-1,1,4,0,1,21,4,-1
-3,-2,0,12,40,-67,-8,3
-7,-8,-10,-10,-29,3,5,-2
7,-5,-2,-45,-76,4,-1,-2
2,0,-11,7,16,1,-4,2
-6,-11,-12,27,13,-19,-7,-8
-6,1,16,64,20,8,3,-4
19,34,49,-30,0,-1,11,15
-6,13,23,-71,-34,-17,-19,-11
-15,-52,-128,-47,-22,2,-12,-12
-2,-12,40,42,21,-24,-1,2
-5,-15,-41,-13,9,-7,0,0
-1,-6,6,-12,-26,3,1,0
5,6,13,15,-2,10,5,2
4,6,21,26,18,21,1,4
-6,-6,4,18,-3,-24,0,0
-5,-4,2,9,4,-8,-5,-14
1,11,5,11,67,73,5,-3
-2,-5,-9,-9,-44,-8,1,-1
5,9,3,-24,-40,-13,-7,-2
-5,-16,-9,-25,-36,-27,-2,-4
-4,-2,0,9,24,17,2,3
3,7,2,7,0,0,0,0
-2,-11,-14,0,8,-6,-5,-1
7,12,36,7,6,1,-1,6
-5,-10,-32,-4,-4,-15,-3,-11
-1,4,12,16,-5,18,9,1
6,8,15,4,-23,-18,4,14
-3,5,11,-16,1,-17,-10,-7
-9,-7,-38,-23,-5,7,-12,-9
1,1,-13,14,5,-8,-2,-2
0,-2,5,9,11,14,7,-2
0,-2,-4,0,2,0,5,3
0,-4,-1,6,4,3,4,3
2,-1,-1,3,3,1,1,3
-1,-1,4,33,10,2,-4,-2
0,6,35,36,62,-11,0,-2
3,9,-2,-89,-64,-10,2,5
-2,-28,-70,-67,-82,-51,-7,-2
-3,-16,-2,-22,-41,-29,-12,-14
4,-14,29,-1,35,-20,-13,-5
15,31,-24,14,32,47,10,9
-1,14,0,12,5,-2,5,2
-4,-4,12,21,4,-7,2,-2
-2,-7,-2,-4,-3,-7,-2,1
-1,-6,-3,2,-2,-4,-1,2
-4,-1,1,11,-3,-9,5,2
-3,2,4,11,7,-26,-7,-1
-3,-5,-1,48,24,119,14,-2
-6,-15,-13,-10,-29,-33,-6,1
-4,0,6,-20,19,-26,-2,0
20,59,52,-33,-36,-9,3,1
-8,-26,-59,-36,-17,-12,-8,-4
-7,-11,-51,-12,-19,5,-7,-6
-5,-7,14,23,11,-17,-4,0
-2,2,33,15,15,29,-2,-1
7,9,36,14,24,3,6,8
-8,-18,-48,10,7,-3,-6,-5
-3,1,6,9,-7,-7,-2,-3
2,2,6,-32,-24,17,-4,-2
3,7,9,-1,33,18,4,1
-2,-6,-2,3,-2,-22,-4,-3
-4,-17,-11,-9,-19,-46,-6,2
-4,-22,-5,15,18,69,12,5
13,50,81,14,8,13,7,2
-3,33,-33,-7,-18,-11,-11,-16
-13,-37,5,2,-3,-32,-11,-9
-5,-8,-5,-19,28,59,4,-1
0,-2,6,11,-30,-14,-3,2
-4,-8,2,-25,-30,-21,1,-1
3,1,-9,-1,1,2,-5,0
-6,-19,-17,-3,2,-1,-2,-6
-3,-7,-4,3,21,0,-3,-4
2,4,-1,4,10,-5,-3,4
-2,1,1,6,-13,12,3,-4
-1,1,6,18,8,14,1,4
-1,1,9,33,35,-27,1,-1
1,1,-9,-42,-15,-16,1,-1
2,-7,-15,-36,-47,-16,-2,5
-3,9,19,8,-1,-5,-1,-1
-6,-5,7,7,19,-13,-2,-4
1,3,-13,15,19,26,2,-4
-4,-11,-5,-18,-12,14,-3,-6
0,1,-14,-34,-19,1,-4,-4
-3,-7,-11,19,16,-15,-5,0
1,5,21,46,40,-20,1,0
-1,-2,-5,-15,-23,14,0,1
-5,-8,1,32,-14,42,1,-1
-6,-29,21,-23,7,-1,7,1
7,40,-29,-6,-26,5,11,12
32,39,59,15,43,42,9,18
-21,-35,-21,-35,-48,-37,-37,-33
-13,-8,-19,-8,-7,-10,-11,-9
-1,-1,15,8,3,-24,1,2
-4,-4,-2,11,9,11,7,-1
-3,-1,4,8,1,9,-1,2
0,-2,1,10,14,-62,4,1
-1,-1,-1,7,0,12,1,2
3,-2,-1,0,-5,39,6,1
-1,-2,2,10,24,-19,-5,0
1,-9,-6,-13,-41,22,7,3
-6,-7,0,-2,1,0,-5,-4
6,22,-23,-16,-5,-15,-1,5
-4,1,37,-5,-3,-36,-12,-3
-3,-18,-20,13,8,25,4,-2
-5,-4,-10,-10,6,23,-2,-1
-2,-1,30,6,-6,-28,2,1
0,-2,-76,-1,-11,-35,-9,-4
-4,-15,-1,0,7,-2,-1,-2
-2,1,22,24,18,59,6,2
2,-5,-11,-34,-19,-19,-11,-6
-5,-3,-6,-6,-11,0,1,-3
-5,-5,-14,-55,-45,-7,-6,-2
-3,-12,-5,10,24,0,0,-3
6,4,-2,9,13,1,-1,3
-1,3,-9,13,1,-2,0,-2
-4,2,16,12,6,7,1,-2
-1,-2,9,1,7,-5,-2,0
1,3,8,5,-5,20,1,1
-3,-23,-15,-4,5,-5,-2,-5
-7,3,4,-1,1,-3,-4,-2
2,13,28,35,15,5,6,4
10,2,-4,-8,-11,-12,8,11
10,27,-23,-18,-18,10,-14,-2
-6,-11,91,-28,-37,-7,-10,-6
-12,-21,-45,-31,-5,-8,-9,-14
-7,-19,5,12,1,-41,-3,-5
-4,-6,24,4,32,6,-1,3
0,-14,-33,-14,-21,27,-3,4
-4,-1,14,9,0,-26,-6,-6
4,5,8,15,35,53,11,3
-1,0,7,12,-28,-1,5,-2
1,-2,11,43,3,-15,1,0
2,0,20,-50,-12,-2,2,4
-2,6,-9,-33,-10,32,-9,-4
-6,-8,-10,30,36,3,-3,-9
-1,3,4,-7,-4,-10,-5,-2
3,5,9,-8,-10,-2,0,2
-3,-3,1,-11,-9,-2,-7,-7
-2,-17,-20,-9,-9,-2,0,3
1,-6,-2,16,8,9,1,1
-8,-12,-1,24,9,-22,-4,-5
6,3,15,8,15,2,0,4
6,6,-17,51,45,46,10,4
0,24,7,-74,-67,-65,-10,-2
-6,-12,-34,-58,-64,24,-1,-5
-4,-10,-15,1,37,5,-7,-9
-1,-5,-12,21,-7,-7,3,-1
1,2,33,16,10,-8,3,1
-6,-7,-6,14,11,-11,1,2
-7,0,0,10,8,6,-1,-5
-2,3,-2,6,-3,-18,-4,0
3,1,-1,3,10,42,5,-1
1,3,14,6,8,-6,-2,-2
0,-14,-1,-3,6,-20,2,6
-5,-15,-22,-7,-15,-6,-5,-8
-1,23,22,-5,-17,8,-4,-9
-4,5,-14,5,11,-2,-1,-5
-5,-9,15,-27,-31,-19,-3,0
0,-2,-31,-1,8,19,-2,-6
-7,-27,3,-9,18,-7,-2,-5
1,-2,-32,14,2,5,6,5
-3,0,13,-17,-18,-24,0,6
-1,8,21,5,26,-14,-13,-5
9,-10,-51,42,7,110,15,3
8,28,74,25,45,6,6,5
-2,-15,-14,-60,-85,-42,-7,-7
-10,-29,-128,-38,0,-4,-13,-8
-2,0,3,-8,-4,-11,-3,0
-4,0,24,21,22,26,4,2
3,7,18,23,6,-11,0,4
-3,0,32,1,1,3,3,-4
-1,-10,-20,14,2,-6,-3,1
-1,7,14,9,9,6,-5,-3
-1,-7,-3,3,5,-2,-6,-3
-5,-14,5,2,-17,-16,7,2
13,41,8,7,-13,11,-1,0
-9,7,1,-16,6,5,-1,-5
-5,-13,18,-7,4,-16,-6,-5
0,-11,-15,1,2,27,-1,-1
0,4,9,9,22,-6,1,-1
-2,-7,-2,-3,-24,-32,-6,-5
-1,-13,-28,-10,8,2,-3,3
-6,0,5,20,10,-25,-9,-4
1,-6,3,25,8,76,4,0
-4,4,20,-55,-44,-22,-8,-4
2,2,-22,-52,-28,-40,-11,-4
0,-5,10,10,23,19,6,-3
-3,-6,-17,10,4,15,3,3
-5,6,32,7,15,8,0,-4
2,7,-13,11,-20,20,6,-3
0,-6,21,-6,-4,-18,0,1
2,4,10,7,15,-6,-2,0
-5,-3,0,12,14,-8,-3,-3
-9,-4,4,13,4,-12,-6,-8
2,-12,-7,0,0,-5,6,5
9,2,-27,-7,-8,-11,-1,4
-2,9,4,-16,-27,-45,-13,-11
-6,-19,2,-19,-4,12,-4,-5
0,4,5,12,7,-2,2,0
1,1,-38,7,-8,-10,-1,1
0,0,23,-5,-7,22,1,6
-2,-7,2,0,2,11,4,1
-2,0,45,17,14,14,0,-6
-1,-1,-12,15,-1,-8,-2,-3
3,-1,-8,-27,-5,-3,-4,0
3,1,-4,48,5,-7,-1,2
-8,-26,-44,-104,-37,-17,-12,-8
-3,9,9,-12,-23,-1,-4,5
-4,1,12,9,4,-18,0,-1
2,0,1,28,32,-9,0,-1
-3,14,64,12,2,10,5,0
3,-4,-35,-13,-13,-30,5,6
-2,-14,-24,-10,-14,55,-6,-8
3,9,10,-6,2,87,3,5
-10,-6,4,9,-16,-31,-9,-8
5,3,38,17,19,12,5,4
-3,-26,-67,18,10,-9,-1,-2
-3,-1,-14,-76,-23,-13,-9,-10
-6,-12,-10,-32,-2,3,2,-1
-2,1,-1,8,2,3,1,1
-4,3,12,12,5,-17,-2,-1
-9,-13,6,-7,2,-14,-2,0
4,-1,0,42,-10,-26,-4,4
-5,-5,-4,-8,38,87,3,-10
0,15,-20,4,-5,-14,0,-1
2,-12,-8,-6,-15,-9,-4,4
-5,3,12,5,-2,-20,-7,-4
-5,1,14,-6,-17,-5,-4,-2
0,-4,-19,-2,3,-9,-6,2
-4,-5,-2,12,-3,5,3,-1
1,5,16,8,7,-5,1,-1
-7,-8,-32,-21,-8,-5,-8,-8
-5,-9,9,5,6,-22,-14,-8
0,4,-3,22,16,50,7,6
10,18,-30,6,32,7,7,-1
8,27,127,59,4,23,13,8
-9,-21,-39,-128,-75,-28,-10,-15
-13,-19,-14,-31,-21,-31,-18,-7
-3,-1,54,24,17,21,4,-3
-5,-20,-77,5,5,-24,-3,-2
-4,0,10,14,16,-5,-5,-6
-2,-7,7,10,-15,18,0,3
-1,6,9,10,14,31,2,-2
1,13,11,15,-1,-20,1,2
-1,-14,-10,-6,-3,-5,5,4
5,-3,-13,15,27,8,12,8
-13,0,12,-26,-47,-20,-22,-19
-5,5,49,-28,-14,20,-9,-6
0,-8,-52,0,12,-8,0,0
-3,-9,-39,-2,-20,-20,0,-2
1,-2,22,-6,6,17,2,3
0,-9,11,0,4,-2,-2,-2
1,-2,1,1,5,7,-1,-2
-1,-1,6,26,11,-49,-12,-5
0,3,2,24,8,66,9,-3
2,-5,-14,-20,-10,-36,1,0
-2,0,2,-23,-37,-14,1,5
-1,-6,-11,-19,-9,19,-1,-4
-5,-6,3,-2,8,0,2,-1
-5,-5,-1,15,4,-9,-4,-6
2,1,7,12,0,6,3,3
-3,-12,-2,10,19,-7,-2,0
-3,5,15,0,13,9,-5,-5
2,4,-11,11,17,13,-5,-1
-6,-8,-13,26,-38,-7,4,-3
6,-1,-7,-37,2,-4,10,6
0,-15,3,-8,-13,23,1,0
-4,2,-13,-7,2,16,-13,-13
3,16,33,20,19,-31,-2,-1
-1,9,-58,4,8,0,1,5
-9,-32,-44,-17,-11,-11,-7,-8
-4,-6,4,-11,-4,-11,-4,-2
-2,0,-10,19,8,-10,-3,-3
1,-3,1,-5,-16,-9,1,2
-4,-5,12,1,10,32,5,-1
4,8,14,8,-7,-38,-3,-1
-1,-1,11,13,13,45,4,6
1,2,-4,0,-8,-38,4,4
-4,-11,-30,-16,-18,7,-4,-5
-7,-3,-1,16,13,-3,-7,-10
0,3,7,-3,18,-7,-6,-5
1,21,36,-9,-5,5,-4,1
-3,-12,-25,39,-14,-1,-2,0
-1,-3,-17,-18,2,-7,-1,-1
-4,-6,-4,-2,-4,21,1,2
-1,-2,5,5,-3,-13,5,3
2,-8,8,-12,-7,0,-1,1
-6,-1,-1,-17,-27,-6,-6,-9
-3,3,-6,-10,6,-4,-6,-6
-5,-2,23,30,38,11,1,2
-7,-12,-50,15,11,-7,-8,-9
5,1,-8,-39,-28,-14,-8,0
-7,-9,5,-21,-13,-47,-14,-9
0,-11,-4,11,15,20,3,0
1,12,53,3,-22,5,7,4
0,-1,-31,20,9,-7,2,0
1,-12,-36,-8,9,-8,-2,2
-4,2,10,-10,-1,-7,0,-1
-1,-4,1,-18,-25,14,-1,-4
-2,0,1,19,1,-10,-3,2
1,-1,1,-11,20,-7,1,2
-4,1,5,-5,-22,9,-1,1
2,4,11,8,3,0,0,-1
-9,-9,-13,-21,6,-22,-12,-12
-3,1,0,12,-1,15,4,-2
3,6,16,-23,-18,-21,0,-1
3,-18,-66,12,8,-1,0,-2
-6,10,20,-13,-9,2,0,1
6,5,-6,14,9,17,-4,4
-1,4,-19,32,14,-26,0,-2
-6,-16,-5,-78,-40,-66,-14,-9
-6,-10,-10,-14,10,87,2,-8
-7,-9,-2,10,1,-21,-8,-7
14,16,6,23,15,-2,1,8
5,9,-6,2,-19,-23,-3,-5
-4,3,10,-22,-34,31,1,-2
-3,1,25,25,34,-5,-5,0
-2,-7,54,13,25,5,3,-1
-1,-16,-46,1,-22,-10,3,0
-6,-8,-51,-7,-16,19,-1,-1
-1,4,31,-9,19,3,-3,-3
-1,-8,-47,-20,4,-21,-4,0
-4,2,19,10,17,12,5,1
-3,-12,-7,54,18,-1,-2,-6
7,4,5,-23,-24,-4,2,5
0,3,-19,-101,-48,-29,-10,1
1,19,-16,-23,-12,14,-1,-1
-10,-10,-11,4,18,-6,-9,-9
-11,-11,12,16,-8,-16,-6,-11
-4,-2,-20,-1,1,-5,0,2
1,-1,4,17,8,-1,5,4
5,-8,5,5,-3,-12,3,2
-2,-8,-3,15,14,-40,-5,-2
-4,15,21,-28,-24,15,-4,-9
0,7,12,33,5,-2,4,3
-2,-32,-53,-25,-20,-4,-4,-2
-8,-6,-7,-13,5,-20,-12,-14
-5,6,11,2,-9,14,-3,-4
-2,-11,-20,-3,-2,-17,-5,-1
4,2,15,20,23,-18,3,6
1,-3,3,57,28,36,8,5
4,14,40,-40,-42,-8,7,1
-10,-12,-18,-77,-66,-24,-17,-14
2,0,-37,5,11,-13,-2,2
1,-17,-1,-14,14,42,9,-2
-1,2,13,28,13,1,0,2
4,16,-19,-16,1,-13,-2,2
-4,8,23,14,11,21,2,3
-8,-10,24,0,-14,-22,-8,-7
1,-6,-49,-7,-12,0,1,-2
0,3,-10,-2,-8,0,-7,-8
-5,-2,10,12,30,22,1,-3
-2,-14,-25,12,-1,-12,0,2
4,-1,10,-11,12,19,12,8
11,21,24,-25,-46,-10,9,11
-13,-11,11,-23,-15,-22,-19,-18
-10,-22,-19,9,8,2,-8,-6
-3,-1,25,0,14,-16,-3,0
2,8,-59,-17,-2,1,2,2
1,-5,-1,-14,-11,-4,-1,0
-6,-2,-16,-1,-8,13,-7,-4
3,1,36,17,4,3,4,9
3,0,-24,5,-3,-7,-3,-2
-4,-13,-11,-10,-7,0,0,-6
-4,3,12,-10,-4,-13,-1,-4
0,7,23,12,9,-27,-8,-2
-4,-4,-32,-17,-17,48,0,-2
-4,3,12,9,-2,5,-1,-4
-2,-3,13,-9,-2,-26,-2,1
3,9,-13,10,16,22,4,2
8,17,47,24,7,-5,6,11
-5,-9,-5,5,6,-26,1,0
-8,-2,-9,-25,-38,34,-14,-14
-7,-10,-3,-78,-37,-6,-11,-8
-1,-3,-19,-24,-5,-7,-6,0
-1,-6,-21,7,12,-24,-1,2
-2,-3,-6,23,3,20,2,-1
1,7,-7,11,6,4,1,2
0,0,7,5,6,1,3,2
1,3,13,8,3,2,0,1
2,0,50,13,4,0,3,1
9,11,-95,4,3,-4,-2,2
-5,-1,23,14,4,10,-6,-6
5,11,-3,-37,0,-10,6,0
-7,-21,-9,-48,-58,-5,-10,-10
1,20,24,14,21,53,-2,5
-5,-10,8,-1,-9,-21,-4,-1
1,0,9,-3,-11,9,0,-2
-1,-1,-19,3,12,0,2,1
-9,-7,-8,-1,9,-3,-2,-7
-6,-10,-5,3,5,-41,-8,-2
-3,-5,-5,5,-8,57,4,0
1,5,1,8,27,51,4,-1
4,6,10,40,26,-16,9,4
1,-2,-13,42,2,2,-7,0
-10,-5,5,-128,-68,-21,-10,-6
-2,-7,-5,-26,-7,15,-7,-3
-1,-5,-6,9,9,-4,-6,-4
1,-5,-7,3,3,-20,0,1
-2,-10,-3,23,24,10,-4,-4
-6,-5,1,11,-10,-58,-10,-6
7,1,5,29,12,86,17,13
-4,-11,16,40,13,-5,-5,2
14,31,31,-43,-40,19,9,4
-2,0,-69,-43,5,-24,-11,-5
-8,-16,21,-16,-3,-13,-4,-3
-7,-7,7,11,4,-6,-6,-6
0,7,3,12,2,-3,-3,0
-1,-4,7,8,-3,18,2,3
-3,-10,-32,8,13,-10,-1,-2
-2,-1,23,26,14,-46,0,1
4,0,4,-24,-37,53,12,5
-13,2,-6,-35,-36,5,-5,-7
5,12,40,0,-24,-7,-4,-8
-4,-24,-43,8,24,-3,-1,-7
2,7,10,-2,14,-20,-4,4
-6,-1,-2,43,-3,22,-1,-2
-2,2,4,-32,-14,4,-2,-4
-4,-5,1,-8,-5,-8,-3,-1
-2,-2,-5,5,1,-20,1,-1
3,-1,-13,-10,6,12,0,-3
2,-2,19,16,12,-11,1,0
-2,-3,19,17,-2,11,0,-2
-4,3,4,-11,-10,-15,-1,0
-4,-15,-5,3,17,-20,-1,0
-3,7,-10,-9,-3,0,-10,-6
-7,9,14,27,36,48,-5,-8
4,-19,-34,-16,-40,-9,17,10
-5,-19,-17,-65,-52,-19,-1,-4
8,20,16,-3,-35,-58,-14,-1
3,1,21,19,32,-5,-3,-6
0,3,-22,-4,0,16,-6,-7
-3,-7,4,41,32,-18,-2,3
2,8,5,-68,-39,-17,4,1
-4,-2,7,35,-20,-6,-1,-3
-7,-10,-4,7,3,0,0,0
3,-8,0,8,33,15,10,10
5,8,-4,-10,-35,-11,-1,1
-10,-9,-5,8,-13,-37,-9,-14
-3,-16,-22,-27,-3,-20,-4,-7
-2,14,32,16,21,32,1,-6
1,6,-7,9,15,-10,3,7
2,-11,11,-8,5,25,5,3
-2,3,-13,-20,-10,0,-3,-5
-7,-27,-90,-1,-19,-4,-4,-7
-1,4,3,4,18,-20,-2,0
-6,-7,13,3,-6,22,-4,2
-5,-2,21,1,-6,6,-10,-9
8,8,-28,14,6,-1,11,-3
-2,-2,18,5,-13,-46,0,-3
-3,-4,-17,-14,-20,-1,4,-2
-4,-7,-8,-21,-8,-20,-6,-3
-3,8,17,-8,-5,20,2,5
-3,1,-3,7,17,-10,-5,-1
-3,-17,-14,5,15,-5,3,-5
2,2,19,14,-1,-1,-2,2
-2,0,1,10,5,1,-1,-1
-6,8,15,35,26,10,-3,-5
1,-4,-41,-83,-60,-28,-1,2
-2,-3,25,-11,1,-23,-7,-7
4,24,-19,7,6,-28,-12,-1
4,-5,3,-17,14,22,0,4
-3,-18,-1,5,3,-5,5,-1
-6,-5,5,21,-2,-17,-3,-10
-5,-3,4,-18,-12,10,0,-1
2,-10,-14,13,17,23,0,-1
1,15,9,9,-21,-48,-4,0
-3,-9,-22,-34,-28,-10,-1,-1
0,2,-13,-13,-2,-3,-9,-6
-4,-6,9,24,1,-12,3,0
-2,-5,-5,-20,-3,4,-3,-4
5,6,-10,-4,2,-6,-7,1
1,4,33,30,14,14,8,5
2,0,4,-14,-21,-11,-3,-1
-6,-13,-46,15,21,-30,-7,-5
0,-19,-4,-23,-17,-5,2,4
0,17,-24,-1,5,-6,2,-4
-9,-13,83,19,2,14,-5,-6
8,23,31,-21,-4,-12,2,0
-3,-9,-70,4,-21,-13,-6,-6
2,-7,13,-17,-3,-5,-5,3
0,-7,-3,0,4,-1,-5,-2
-1,1,20,6,1,-2,-3,-5
-3,-4,-2,5,6,1,-1,0
-2,2,5,34,10,5,2,3
3,1,13,4,0,-10,3,2
-3,-10,-17,-46,-16,-5,-14,-10
2,17,17,-5,-12,9,5,6
-7,-17,2,6,28,-30,-7,-5
2,10,10,16,1,41,1,-4
-3,-8,12,-2,8,-23,-4,0
-2,-11,-34,-8,-15,10,-2,-2
1,0,6,4,-2,-6,0,0
0,-5,2,6,-2,17,1,-4
-2,-13,-10,17,13,-49,-8,-6
8,24,38,16,8,31,6,3
-5,4,-8,-45,-36,-40,-14,-10
-8,-20,-45,-28,-15,-9,1,-7
0,0,23,3,-17,1,-1,1
1,11,-8,22,15,-12,-3,-5
-1,-3,1,4,13,11,-1,1
-1,-9,-7,-16,8,-24,-4,-1
-1,11,19,13,-6,-16,2,0
-1,-8,-10,18,6,8,1,-5
-2,-9,-8,-16,-6,-23,-6,-5
-3,-2,8,-9,-20,-25,0,0
-1,-1,4,0,-15,20,1,-3
2,2,-12,-41,-5,1,3,4
-8,0,12,11,8,-32,-6,-2
-2,-17,11,6,-25,3,-3,-6
6,18,-15,49,44,0,-5,0
2,8,-5,-41,-10,-17,6,7
1,2,5,-20,-20,1,0,4
-4,1,-2,9,-4,-3,-5,-1
-2,-6,0,14,15,-3,0,-1
-2,-4,-1,6,3,1,0,-3
-1,-9,-9,-1,-6,6,0,-3
-4,-2,2,-5,-6,-14,1,-2
1,-6,26,12,4,8,0,1
2,18,12,26,28,-13,-5,1
4,9,-30,11,-13,-17,-12,-3
-10,-21,13,-52,-33,-20,-7,-6
-2,-10,-6,-46,-31,-11,6,3
-4,-1,19,21,8,7,0,-4
1,4,2,21,14,3,5,0
1,-6,6,0,5,-3,-4,-9
-2,-1,-3,14,3,-7,-9,-8
0,3,8,-22,5,35,2,-2
-3,4,-3,-16,-5,0,-4,-2
-7,-32,-19,14,7,-17,-3,0
8,46,52,-18,-19,-11,3,6
0,-9,0,1,-2,26,0,0
-15,-13,-15,-15,-11,-14,-15,-15
1,-2,-22,2,-5,-8,-1,0
1,2,-10,-1,-8,-2,-2,3
-2,-10,-11,-3,9,-28,-5,0
-1,-2,3,7,32,8,-3,-1
-2,5,9,5,-12,-5,2,1
-3,0,-2,14,15,-2,1,-2
-5,-17,-9,10,-4,-6,-4,-2
1,5,30,-21,1,-25,-1,2
4,23,29,14,-13,-62,-12,-2
2,14,-74,-27,-11,86,23,6
-11,-38,8,-8,5,13,-7,-12
-4,3,34,22,-22,-10,-4,-1
-4,-8,-14,-83,-32,-14,-10,-2
-2,-4,1,-5,4,-10,-5,-1
-2,8,7,15,27,-3,0,0
-5,-7,-8,27,6,-5,-3,-2
-1,0,-3,-1,2,-1,3,-3
-4,-9,0,1,3,2,2,3
-9,-16,-14,-4,-10,-8,0,1
3,12,7,0,-8,-36,-5,-5
0,-8,2,-26,3,-40,-5,-1
-11,-33,-95,-15,-17,15,-2,-2
-3,-9,4,6,2,0,-1,0
-3,-2,5,-5,-1,13,7,9
0,-2,4,2,4,-14,1,-2
4,10,1,-2,2,1,-3,-1
-3,4,9,-3,-3,-6,-7,-2
-3,4,8,13,13,13,3,2
6,6,-24,-1,15,-5,1,4
-7,-17,-17,-31,-53,-31,-10,-8
-5,-9,-6,-11,-15,-22,-9,-6
-1,1,20,28,30,46,6,-1
-5,-7,9,-5,6,44,5,-2
1,10,-19,-34,-26,-31,2,2
5,1,-51,33,35,-52,-1,2
-2,-1,2,31,-49,35,0,-5
-8,-7,-1,-102,-36,-26,-4,-4
-5,-1,-11,-18,20,-19,-3,-6
2,-7,4,20,5,25,-1,6
-1,-9,-4,9,9,-8,5,-2
2,1,5,8,-14,-18,1,3
-5,7,17,12,-8,59,-2,-2
-2,-6,4,-28,-20,5,0,-4
-2,7,-5,-9,19,-16,-3,-3
-2,-3,-5,13,22,7,-1,1
-4,-6,0,13,-1,-14,-5,-4
-3,-9,-45,12,32,13,2,1
0,-8,21,21,2,-15,-3,2
-5,-3,-5,-29,-17,1,1,-2
-1,0,12,-3,1,2,0,2
-3,-9,-5,3,-17,-13,-5,2
-8,4,-11,0,30,19,-1,-10
3,-3,24,6,-5,-17,-1,1
-3,-17,-57,-9,-24,0,-2,1
-6,-11,-1,-28,-12,-3,-8,-4
-1,9,-8,39,4,-9,-11,-5
-2,14,29,10,37,11,4,-1
-8,-11,1,6,-17,-24,-3,-3
6,1,-4,24,-4,32,5,5
-1,-5,-1,-31,-5,8,-6,-4
-3,-1,-11,-72,-42,-22,-10,-4
-6,-9,5,14,7,-16,-7,-4
-5,-7,-6,0,3,5,-1,-5
-5,-2,1,12,-13,-42,-4,-4
3,4,11,0,17,60,6,4
-2,0,-4,8,8,-16,-1,1
-3,4,1,6,17,-34,-6,-4
-1,-6,-12,6,-16,18,1,-4
1,19,11,-6,-11,1,6,6
8,-5,24,20,35,1,3,8
-6,11,-32,-38,-2,-4,-7,-7
-7,-27,-6,-17,-16,-3,-5,-2
0,11,-1,0,24,20,3,-1
-4,14,45,36,-4,-14,-2,-12
-3,-2,-5,-12,-26,-2,-6,-2
-2,-4,-17,-1,5,-19,-6,-5
-4,-10,-17,-85,-27,36,-7,-10
-10,-6,-6,-21,0,13,-8,-10
1,-2,1,25,11,-12,3,2
2,-3,6,21,6,-10,3,-1
3,5,-7,-15,-18,-18,-3,1
1,16,21,15,21,4,5,3
-3,-1,6,4,-2,-20,-7,-5
-4,-13,-43,5,-12,-2,0,-4
1,-4,0,-12,-14,-5,-2,1
-4,-11,8,10,5,19,-7,-4
5,25,0,-7,13,18,-1,-1
1,-3,-9,-4,-6,24,6,6
-7,-30,-23,-38,-29,-14,-4,-4
-5,14,29,2,-7,8,-4,-5
-4,-3,33,-4,14,-7,-2,-2
1,6,14,10,12,-1,3,-2
2,-1,-47,3,-7,0,-1,-2
0,-5,-4,-9,-10,2,-2,0
-6,-4,9,11,9,6,0,-3
6,-12,1,23,3,-45,-7,7
16,26,39,20,36,82,17,9
-9,-1,0,34,-6,-8,-19,-24
-7,-13,-23,-59,-44,-47,-13,-7
0,14,-1,-9,-10,14,1,1
1,2,12,-5,-5,-17,4,4
-4,3,5,6,0,11,1,-2
-2,-4,5,7,5,49,5,1
1,-2,-5,6,11,8,3,5
-6,-8,-1,-1,2,-9,-1,-6
-5,1,1,1,-3,6,-7,-11
-3,-8,3,7,11,-3,2,3
5,-6,-6,26,14,12,8,6
7,19,-15,-19,-19,20,-1,4
8,21,3,0,-4,-52,-14,1
-12,-24,21,-10,3,-16,-5,-12
-6,-5,5,-3,9,14,2,-3
-4,-5,-30,-9,-7,-4,1,1
-2,-7,-18,0,-2,11,3,-1
-3,2,-2,-27,-15,-27,-2,-1
-2,-1,1,4,3,18,0,-2
0,0,1,16,4,2,0,5
-4,-2,0,3,24,-6,0,-4
0,2,2,49,-8,7,3,0
-7,-11,-13,-34,-40,-23,-9,1
-1,9,11,-11,-16,-65,-10,0
0,-9,22,20,43,84,10,-1
4,-1,-58,4,-10,-29,10,2
-8,-4,8,11,6,22,1,0
-3,-5,33,15,22,2,-8,-10
-3,10,-5,-8,-24,-19,-10,-7
0,11,-12,-42,-26,-7,-2,-1
-2,-11,-18,2,-3,-2,-5,0
-3,-8,26,10,22,-15,1,3
-4,-8,-9,-12,-10,-6,-6,-7
-5,-5,-16,-31,-43,-31,-5,-8
-2,-1,13,-3,7,24,1,0
-1,0,31,37,34,14,9,1
-1,3,-31,-11,-2,-5,-1,-1
-3,-6,-1,-5,6,-7,-10,-7
-3,-3,-1,0,0,3,-5,-3
-2,4,-8,5,1,4,1,0
-5,-15,23,9,-3,4,3,0
-2,3,18,13,7,-5,-3,-5
8,14,10,-18,2,-2,-7,-1
-4,7,15,40,-9,-12,-3,10
-2,-8,-59,-19,6,20,0,-3
-10,-17,-14,-5,-10,-19,0,-7
7,10,14,1,0,9,0,-6
-7,-8,6,-13,1,-9,-8,-7
-4,4,-11,25,5,-20,-2,-2
1,20,2,26,26,3,5,-1
-7,-43,-32,-31,-36,7,-1,-7
-4,-8,9,-20,10,-9,-5,-1
-7,-5,-58,-16,-15,-11,-3,-10
0,-5,-3,1,-3,-4,-8,-13
11,4,8,-3,-2,-2,-1,16
-2,0,5,4,-2,3,-1,1
-1,5,-6,14,26,5,0,-2
-4,-14,-10,7,-2,-14,-7,-20
3,4,14,0,-16,3,2,5
-1,7,23,16,24,-5,1,8
5,27,38,35,-1,5,5,-2
1,-7,-68,-18,-10,-4,-2,1
-4,-9,-14,-43,-1,21,-4,-5
-3,3,21,-5,-5,-6,-6,-4
-5,-8,-39,-19,-4,-7,-10,-7
-7,-15,18,39,0,14,5,-1
-2,7,-7,24,24,-29,-10,-9
8,9,-1,0,-6,9,3,-1
-5,-1,11,-14,-5,-23,-6,0
11,1,5,26,8,4,-1,9
-2,6,41,22,14,43,5,8
0,-15,-36,-33,-54,-3,6,2
0,-5,-21,-19,15,-34,-10,-7
2,1,9,28,27,-4,4,3
-8,-6,-1,-9,8,3,-3,-8
-6,-4,-3,12,0,-16,-7,-10
5,7,18,6,2,4,-7,2
2,1,27,23,11,14,5,10
-4,-20,3,-10,-10,-12,-2,-5
4,18,-6,18,3,3,-10,-3
-5,-10,42,4,26,-29,4,-1
2,13,-19,-42,-51,-23,5,5
-7,-6,-2,-38,-22,-14,-11,-10
3,3,4,14,14,14,1,9
-3,-3,6,33,32,35,8,0
-7,-24,-4,-4,-19,8,-1,-12
6,-3,-17,-95,-45,-21,-10,-4
-5,-9,-10,59,31,14,-3,1
-2,3,11,9,12,12,2,-3
2,4,-9,-14,-31,-28,-6,-3
-4,-7,19,3,-22,-1,-5,-2
3,3,-20,16,16,3,1,-2
-1,-2,8,-4,12,5,4,2
0,7,5,30,13,2,1,3
5,23,24,-32,-4,-5,6,5
-6,-23,-22,-21,-22,-6,-6,-6
-2,-23,-110,15,22,-8,-3,2
0,9,37,-3,1,12,2,0
-7,-8,-4,-16,-15,27,-9,-13
2,0,-2,-8,5,-28,0,2
-4,0,-5,0,-8,-1,-5,-4
-4,-11,-18,1,2,-6,-5,-2
0,-3,-2,15,7,8,6,3
5,16,36,11,4,-8,2,0
-3,-7,9,-17,-8,17,-1,0
-3,-6,14,5,-6,3,4,1
-5,-2,-30,8,19,-12,-1,1
-4,-12,-23,-13,-21,-5,-8,-4
4,10,12,18,27,4,-5,-1
4,9,0,-12,3,-10,3,0
-7,-1,0,-4,-59,25,0,-6
-4,-14,-8,-13,10,-31,-9,-9
7,0,9,21,9,5,9,17
-10,-3,15,-47,-5,-10,-1,-9
-2,-8,5,-17,-1,3,-5,-7
-1,-8,-55,30,8,-3,-2,4
5,16,30,9,62,-12,3,-5
-6,-13,-9,-4,-58,-11,-5,2
-6,-6,0,-39,-37,26,-5,-10
-4,-4,-31,-17,2,-8,-1,-5
-2,-1,8,4,-5,-10,-3,-7
3,2,5,11,11,4,2,3
5,21,19,13,7,-2,1,4
-1,-6,-14,10,-2,0,1,0
-8,-15,8,23,16,-6,-6,-11
0,5,-20,-17,-3,-26,-6,-5
-11,-25,-6,-47,-16,-8,-14,-11
5,3,9,3,-31,6,0,5
-1,8,34,1,10,-19,1,4
1,8,18,14,5,12,1,-3
-5,-9,-68,6,9,-5,-1,-5
1,-4,19,-11,-8,-12,-4,-1
-1,-7,-12,-24,-11,-6,-3,-5
-3,-9,-8,-2,-3,-6,-6,-9
0,3,20,10,6,-10,-5,-6
-2,-1,1,3,8,29,4,-1
-6,-9,1,-20,-32,2,-4,-3
7,5,-9,12,16,-14,6,7
4,5,8,11,12,-19,-3,3
-4,3,23,-12,-14,-14,-8,-6
-5,-12,-11,-31,-8,-1,-5,-7
-4,-3,-8,-2,2,-5,-2,-1
-3,-6,-2,-1,1,15,-2,-2
4,14,22,24,23,-10,2,3
1,7,4,1,-23,7,-1,-4
-4,-8,5,-23,-35,-8,-5,-10
-1,-5,-7,-21,-1,-30,-5,13
4,0,12,6,11,52,9,5
0,0,-9,7,5,-2,-3,-1
0,-1,-26,6,8,-5,5,-2
-10,-8,7,-1,0,-20,-13,-13
-4,2,1,2,-1,20,3,-3
7,9,-2,4,10,-14,1,6
0,10,18,4,-7,-12,-2,1
-6,-23,-43,0,-12,-32,-1,-3
-1,4,3,-2,4,39,5,4
-8,2,25,7,-18,-12,-5,-14
7,-2,4,-17,15,13,2,7
-6,-10,-26,14,-5,0,-2,-6
-3,-3,6,-46,-38,-1,-2,0
1,2,0,-9,-3,-9,-5,-5
-1,-2,-3,36,12,-10,-4,-4
-1,6,-6,-29,-16,-18,-5,1
-6,-5,5,17,25,-2,-2,-5
0,-3,-1,7,2,-6,3,-1
-3,0,0,-14,4,4,-2,-2
1,-2,0,-5,-15,-34,-2,0
-3,-2,10,-13,0,-19,-1,-1
1,-4,-5,-4,-11,59,2,4
5,-1,-8,9,3,-15,-1,4
-2,-6,-2,6,17,3,-2,-1
-5,-8,-1,1,-6,-15,-4,-5
-3,-5,1,-4,-8,-3,-6,-8
1,5,-9,7,9,1,-4,-3
-2,-14,-7,16,5,5,-5,0
2,19,58,-1,-11,-13,1,1
-3,14,7,-12,-17,-5,2,1
-4,-7,-19,-15,8,-13,1,2
-6,-9,-3,4,9,1,2,-5
6,-4,-3,-20,-15,0,-2,1
2,3,5,48,6,6,0,-1
-6,-4,0,7,16,-6,-3,2
-3,-4,-12,-39,-13,11,5,-4
1,12,-8,3,6,-6,-6,-7
-8,-14,-13,0,-14,14,-3,0
-5,6,22,4,8,15,0,-6
-8,-27,-6,-27,-15,-26,-5,-2
7,13,-41,-10,0,-24,3,5
-10,8,-38,-12,-15,4,-11,-6
-1,3,23,-10,0,-12,0,-1
-2,-7,1,-2,0,10,0,1
-3,-5,0,12,1,12,-2,-1
-2,-9,1,9,10,32,0,-4
-1,1,8,20,16,-40,-7,0
-4,-2,-24,-13,2,38,-8,-9
0,-6,-9,-11,-25,2,1,-2
3,2,-18,9,-14,-13,12,6
3,25,55,15,44,-4,7,6
5,5,14,-30,-48,9,-9,0
-18,-34,-49,-20,-15,-15,-19,-24
-6,3,-13,-51,-23,-4,0,-3
1,1,4,6,3,-2,-2,-2
2,-1,-1,36,42,-23,-2,-3
2,9,24,0,-14,19,10,4
-4,4,22,-26,0,-5,2,1
1,-10,-110,-13,-17,-35,-1,2
-2,-6,43,10,28,25,-2,-1
-4,-3,-8,-2,-27,42,-1,-2
3,4,-19,7,2,0,2,4
-2,0,10,9,1,-17,-4,-1
0,-4,4,2,-3,10,-1,-4
0,1,3,6,14,-12,-3,-6
-5,-8,-8,-2,-30,4,-6,-6
5,3,3,-25,-6,10,7,6
-6,-6,-5,9,28,-9,1,-3
5,6,-2,-5,0,-16,0,0
-8,-4,-6,18,26,-8,-5,-5
-6,-9,-3,19,-17,10,0,-2
3,0,-8,-77,-41,-22,2,5
-5,-4,-21,-28,-26,-9,-9,-8
-8,-5,10,7,16,-2,-8,-7
0,4,8,19,2,8,3,2
-1,2,7,4,10,-6,1,-2
-2,0,15,16,12,-2,1,0
-7,-19,12,9,-5,-59,-4,-5
1,-4,-20,11,30,22,-1,1
8,24,6,26,-9,62,19,10
-5,-5,-17,4,-1,-17,-6,-3
-11,-10,21,-92,-55,-15,-11,-10
-7,-20,-9,-11,6,-8,-3,-6
1,-2,6,-20,-7,-8,0,-2
-2,-2,6,-4,-6,-16,-1,2
3,-2,-3,11,22,-2,-5,-1
-2,-2,6,-4,-6,-16,-1,2
3,-2,-3,11,22,-2,-5,-1
5,7,3,21,25,12,2,4
-4,-5,-2,2,-13,-4,-5,-1
