Channel_1,Channel_2,Channel_3,Channel_4,Channel_5,Channel_6,Channel_7,Channel_8
-1,1,21,-32,-13,-13,0,6
21,-7,4,27,29,15,4,18
116,3,-13,14,25,-4,-13,2
-128,9,5,-2,-14,-6,4,-21
-101,-25,-25,-37,-54,-11,-13,-54
-27,-22,-14,-26,21,-3,-3,-10
56,4,5,73,19,3,1,11
-128,-1,-6,-16,10,3,2,-1
41,5,5,26,18,-22,-2,10
30,-1,-1,-24,-45,4,4,19
12,1,-21,-60,-13,-13,-9,-1
4,-12,-5,-1,33,-16,-1,6
15,4,-5,-52,12,13,2,9
4,-4,7,-1,-27,-8,1,4
11,4,12,-27,-23,6,11,16
8,12,3,67,-1,-22,-6,-3
7,6,49,-34,127,8,2,-5
-30,-18,-60,-37,-51,-19,-13,11
2,-7,-9,71,-128,-16,2,-25
-106,-12,5,2,69,7,-7,-28
25,-2,11,7,35,22,4,-4
11,-4,-15,-28,16,-27,-4,5
-28,27,8,3,-19,-30,7,-1
125,5,5,38,-14,45,17,22
-103,-11,-3,-37,-13,-66,-22,-26
-128,-16,-14,22,3,18,-8,-26
-7,-15,-9,11,10,18,1,6
29,5,10,-20,17,-16,8,14
16,1,-36,7,-107,-42,-16,-1
-25,3,11,19,12,26,0,3
20,29,-21,-42,32,1,0,7
99,-17,17,21,-4,9,0,-39
-128,-44,16,11,7,-9,-8,-38
-3,-12,-22,-1,-19,15,-9,-3
38,12,0,-32,-11,-35,0,10
29,19,54,25,30,43,14,20
40,6,-25,-6,3,-2,3,5
-18,-4,9,-19,-20,-9,-15,-18
-128,-21,10,7,-20,-7,-5,-24
0,-12,-44,-4,-11,-10,-2,0
17,14,4,14,127,38,12,5
18,-7,16,-24,-128,13,-2,-5
62,8,3,-3,-19,-13,3,23
-14,-1,9,5,55,-5,-6,-1
-4,-19,-14,-82,-61,-13,-16,-9
6,-9,-2,50,89,19,0,1
31,-10,-26,-82,-32,38,8,18
64,30,17,27,-40,-11,0,14
50,17,58,40,29,-23,7,-1
-128,-40,-54,20,-30,-10,-4,-44
-47,2,7,34,16,22,4,-7
-56,-28,-23,-35,-29,-49,-10,-51
27,6,6,-7,20,-26,-1,0
1,15,-9,25,-9,27,11,7
-5,-1,-3,-17,67,2,-5,-17
14,-7,20,-10,18,-1,4,0
-2,-7,9,-11,-48,-21,-8,2
12,3,5,-1,17,27,2,11
25,6,-21,2,5,14,7,6
-72,-7,-17,12,-28,-5,-7,-13
-24,-11,9,-31,-13,-14,-12,-15
28,0,-4,32,11,-39,6,20
-6,5,11,10,45,95,8,10
49,9,26,-12,-42,-17,-5,12
-110,-14,12,9,-6,-4,-7,-24
-65,-16,-16,1,44,-5,-5,-28
59,8,-15,-19,-59,-19,-3,11
5,-10,3,22,42,-28,-5,-2
-81,-7,-4,-20,-41,46,5,-7
36,0,-13,36,-14,-5,1,17
27,11,14,23,31,-5,12,15
-9,12,-16,-39,39,19,0,-5
-43,12,42,-14,-46,11,1,-1
15,-28,-19,15,-16,-14,-21,-17
23,-12,-27,-37,44,-21,-10,1
24,8,11,-11,-27,19,3,14
-8,-3,-33,-17,10,6,1,-19
49,9,18,-17,20,5,-2,-10
-49,-10,-32,-20,-56,7,13,-10
-7,-12,-10,-7,11,-9,-8,-4
-9,-1,16,18,30,-22,-8,0
21,-5,2,-13,19,9,3,7
20,3,-7,19,-15,0,-4,13
25,-5,-1,-23,66,-20,-6,8
0,-10,-13,-11,-117,11,6,1
3,8,25,13,24,-7,4,2
20,-2,-5,-8,13,0,1,3
41,-4,-21,9,-16,22,-6,-6
-57,-8,-26,-91,52,-4,-2,-12
3,-2,4,4,-71,-15,1,-2
14,9,24,4,33,-5,1,21
80,5,14,-10,-15,27,2,18
-26,-13,0,12,4,-6,2,-20
-62,5,0,0,-7,-35,4,-4
-10,1,-5,-2,88,54,0,-2
5,1,-3,-8,20,-6,-3,-7
55,-8,-25,29,-58,-20,-8,24
54,11,10,7,-1,-6,8,5
-64,-13,17,19,97,0,-6,-28
-15,-1,-2,-13,-113,16,4,-11
-15,-9,-32,16,-12,-24,-4,1
7,-1,-12,-14,2,-12,-16,2
20,-2,15,27,41,1,0,-3
1,14,26,12,1,18,13,16
-52,-13,-6,-48,-20,10,-4,-5
-12,-14,-34,49,31,9,5,-16
62,1,-5,-44,-55,-12,0,14
18,28,15,-15,32,-9,-15,24
118,8,-2,-17,7,35,12,-9
-128,-71,-26,16,3,-4,-15,-61
11,-4,7,16,-40,8,2,-10
35,15,1,2,0,-15,0,5
30,12,7,-31,-10,-6,4,18
12,12,11,21,19,2,2,9
2,-4,-2,50,9,-9,1,6
14,8,41,-19,0,13,6,17
-12,6,-31,34,96,11,0,-8
-9,-4,-15,1,-112,-31,-13,-7
-15,-9,-22,-110,-67,18,-5,-12
-2,-9,17,-22,6,41,2,5
-8,-6,-7,8,24,3,-2,-3
-14,8,-8,-16,-12,-27,-7,0
26,14,11,25,-14,38,15,10
48,15,3,-19,67,6,11,31
6,-1,6,16,0,-3,-6,-9
-128,-24,6,14,-12,-16,-14,-48
54,11,3,-38,-25,-23,-1,3
21,-12,-13,8,-13,29,0,-17
-58,-36,-21,-33,6,-9,-8,-22
4,4,-14,16,-34,-16,-5,3
34,17,0,-5,-15,-7,5,19
28,2,7,2,49,2,9,19
-2,-6,2,7,-62,30,0,10
47,13,20,5,68,-4,-5,0
-68,18,21,-6,-6,0,3,-3
14,-39,-37,-14,4,-16,-13,0
78,8,0,11,36,-7,-3,18
-50,-3,-12,-17,-75,-2,-7,-7
-6,-13,-3,-21,-20,-20,0,-29
17,-12,-2,-24,-18,-7,3,-19
43,-10,-22,-26,-23,-1,1,8
27,9,12,14,30,17,2,4
24,17,34,51,18,-58,-13,2
24,9,-1,-54,19,37,1,2
-28,-10,-13,-54,29,30,-1,-4
2,-10,-5,8,-44,6,9,12
24,3,-3,14,-76,-7,-2,13
21,12,4,2,31,-9,-9,-2
-36,20,16,-14,-50,10,7,-4
-66,-12,18,12,62,6,-1,-8
-63,-17,-31,-21,-44,-26,-13,-13
10,-4,-7,56,26,-17,-5,2
71,4,2,-34,65,-7,0,10
-32,-19,0,-3,-24,28,-13,-16
25,3,10,7,-50,-9,-1,4
2,-6,11,-20,12,1,-4,2
10,-5,-45,7,31,-15,5,15
-48,13,6,27,-34,-14,4,-3
-83,9,16,5,19,24,8,-13
32,-14,17,34,41,14,-1,-7
-27,-18,-21,-53,-26,-13,-12,-16
24,4,3,3,-84,-30,-1,2
61,0,-9,4,26,7,7,27
31,30,20,24,37,21,11,4
-71,-9,-2,7,-99,-32,-16,-20
-27,-29,-77,-51,-18,-4,-10,-16
11,4,22,9,17,-10,-5,9
48,34,66,-28,10,3,11,12
-11,-2,-46,15,6,-6,-5,-11
-23,-19,-55,-15,5,11,0,-6
37,-10,6,14,20,-29,-9,4
34,11,2,-1,0,61,17,20
-8,-12,-4,-7,-27,-10,-7,-12
-117,-6,1,-12,34,4,-5,-24
-13,-3,12,30,28,-7,-11,-41
20,-16,-10,-19,-24,-24,4,-1
25,-2,10,18,-13,61,5,15
33,6,10,10,-5,-8,-4,3
18,11,-6,-3,96,4,-7,10
-3,-3,-48,-3,-95,-48,-11,7
41,-2,8,-62,53,19,15,-12
-78,-4,28,-7,81,-16,-21,-37
23,-12,-6,74,-65,9,-10,1
32,2,-12,-41,-50,-28,-1,11
113,8,-11,11,10,0,3,25
33,22,29,40,18,-12,1,30
-115,-17,-36,-18,99,4,3,-38
-128,-18,6,48,-58,-17,-12,-37
61,-14,-19,-38,-58,11,-3,9
93,4,13,26,52,-3,-6,7
49,-9,-2,-19,13,7,6,-6
-99,8,21,5,21,15,6,3
-9,16,-4,13,-7,-7,-5,-4
0,-2,-2,-30,-56,-7,-3,-3
1,-1,8,21,32,-8,-3,1
-10,-12,0,18,87,13,-5,-6
-2,-9,-24,-27,-40,-9,-6,0
7,31,-8,-2,-14,14,11,21
-11,-3,1,8,10,-5,3,-2
-12,-16,-14,1,-11,-18,-15,-14
0,-14,4,-14,17,1,6,14
24,12,-3,-11,-59,-57,-7,9
54,8,-11,-60,-18,26,-11,10
27,7,21,127,10,58,5,-4
-128,1,6,-44,-3,-31,-8,-31
127,-12,-6,-13,7,-15,-5,-7
-128,-26,-1,15,-43,-13,-3,-32
11,-16,-5,-1,58,8,3,-4
63,7,15,17,12,-8,-2,3
23,0,1,-38,-23,-4,2,12
24,7,-8,-21,-15,-4,-7,7
7,8,11,27,38,-17,1,9
-6,-4,-2,-8,-7,24,3,1
-5,-2,-12,-7,-4,41,14,12
35,-9,0,-1,18,-21,1,8
29,9,-12,13,9,-19,-2,18
81,44,18,25,-55,15,0,34
-69,20,19,-83,1,25,-8,-42
-128,-52,-29,51,32,-22,-22,-85
-8,-32,-5,-24,17,-8,-2,-17
72,-8,-5,-18,18,-6,2,25
51,9,18,31,-4,10,2,20
20,-11,-12,-47,-58,11,-1,-7
-53,-4,-16,30,8,-32,-15,-17
4,10,15,10,-1,31,15,4
7,3,25,2,-15,3,6,14
-5,-14,-43,-23,15,-9,-8,3
-15,-2,-9,11,-33,-6,-9,-5
-11,-8,-5,-26,9,-1,-7,-6
2,0,15,7,11,1,6,12
-9,-4,9,2,26,4,-1,3
-34,7,19,22,35,3,3,-11
42,15,7,-10,-57,-19,-3,-3
-7,12,-46,3,-16,43,3,1
-37,-25,-6,17,50,-30,-8,-16
16,-8,17,-12,56,4,-2,19
68,20,18,28,-94,13,13,-2
-63,-9,-31,-69,23,-29,-10,1
21,-10,-2,0,29,17,-12,-9
-128,-6,61,24,15,-3,6,-27
0,-24,-9,12,9,-3,-8,-3
70,4,-15,-42,-12,-38,0,19
21,7,-5,12,-56,-7,-2,6
47,4,16,-29,37,8,-6,11
8,3,22,37,-47,-12,0,-5
-44,-7,-18,3,40,-17,-7,-5
-7,0,-4,15,26,12,-4,-2
-6,3,7,-19,-46,-14,-4,4
-15,-16,-19,-7,-77,-15,-4,-3
-10,-9,-19,-41,25,39,8,3
-5,20,11,-8,16,-12,-2,-3
73,31,36,25,-3,-29,-4,50
98,12,17,-19,-45,64,14,2
-128,-24,-5,11,93,-22,-7,-86
23,-12,-41,14,-8,-11,-7,-21
81,-46,-76,8,-33,-39,-18,-6
27,-11,-4,-65,-6,1,-2,2
-10,-6,2,2,-9,16,3,11
8,10,16,3,12,55,13,17
14,12,18,2,25,25,1,3
3,-1,3,3,-31,-27,-13,2
-2,1,-8,-12,77,-9,-1,3
-11,-1,7,10,-73,-6,1,1
-9,-4,-30,-2,-14,-8,-1,-1
12,3,-4,-16,102,10,4,5
3,-2,4,51,-81,-17,3,5
-61,-23,-11,-29,-11,21,-2,-21
-3,20,34,21,15,-17,-11,-17
5,28,-17,-8,3,11,0,-3
-2,-12,-29,-19,7,0,0,4
54,-8,-13,1,31,6,4,32
103,7,17,-10,-36,-9,5,16
-128,-3,8,23,100,17,4,-43
-58,-16,34,13,-7,-14,-6,-29
-31,-24,-69,-36,-121,-30,-14,-23
-31,4,-16,-4,34,18,5,18
36,3,4,0,-53,-8,10,-8
9,-6,0,2,-7,-5,-20,-15
20,-3,8,-5,9,-30,-12,-3
19,2,10,30,44,-26,-3,12
17,0,-4,7,17,16,9,19
-29,-8,-26,-89,-16,-5,3,-8
12,-18,-8,3,32,-18,-15,-7
2,21,-1,-52,-53,31,21,2
42,34,23,1,-31,-11,-4,41
83,6,8,77,73,21,-4,11
-6,-7,10,-49,-102,-23,-7,-26
-128,-59,-26,-6,54,0,-15,-64
-42,-11,-8,-19,-4,-6,-5,-15
58,3,5,18,67,16,2,12
49,3,-7,-47,-27,-8,2,18
19,-5,-5,38,-105,-7,-5,8
12,34,47,-57,10,-23,3,2
6,30,17,13,26,75,9,2
-20,-35,-87,-25,40,-23,-8,-7
-14,-6,4,2,9,6,-1,3
-10,-12,5,6,-24,-12,3,14
5,-2,3,-9,-12,-1,4,6
-19,16,9,-24,-4,-17,-2,-18
-28,-5,22,67,12,15,-9,-31
-8,-4,-5,3,109,10,10,1
15,1,-8,-10,-93,-20,-7,-6
95,-5,-12,-4,3,-30,-18,56
43,31,41,21,40,17,15,6
-128,-13,35,-32,-27,1,-8,-71
74,2,48,34,80,6,-1,-24
-65,-26,-39,42,-33,-9,-12,-1
49,-21,-78,-30,0,-1,1,8
-26,-3,37,-31,37,8,6,11
34,-1,-92,-47,-64,-3,4,15
22,6,34,-15,25,-9,-6,8
80,-19,-43,-31,-47,14,10,40
67,23,14,7,70,-19,-5,14
-115,23,23,51,0,25,-2,-45
-128,-10,50,18,-16,-9,-10,-28
84,10,24,6,16,2,4,12
-36,-26,-110,-17,14,-12,3,-7
9,-25,-4,-39,45,19,-1,-1
14,10,22,12,-37,-36,2,1
13,-4,-27,-50,35,63,-13,10
127,23,-16,-8,-105,27,10,78
21,12,35,9,-30,-19,17,-14
-128,-60,-19,-1,47,2,-8,-93
26,-12,20,9,10,-7,-5,-30
90,2,19,-16,-18,-4,-5,12
3,4,-102,-30,28,1,-3,6
18,13,5,-2,-13,-15,-2,24
104,7,7,54,9,-6,-3,9
-128,-15,1,3,-11,8,9,-5
-12,-13,6,-10,5,2,-2,-26
8,1,10,24,9,0,-3,-2
-1,16,23,-10,-24,-6,-6,10
9,10,-25,9,12,-11,1,5
-43,-37,-68,-46,-45,-23,-15,-10
-13,-3,15,-25,29,-28,-6,-3
18,23,12,11,72,37,19,12
15,5,21,46,-49,-16,0,11
-46,-9,-16,-53,-85,10,-1,-9
-54,-39,-12,16,-49,-10,-7,-16
10,1,3,6,13,-8,-5,-3
0,-7,-12,9,48,-15,-2,0
2,2,16,-8,-7,31,-1,-1
9,-1,15,8,3,2,8,11
26,22,-29,11,31,-16,2,6
67,35,52,-17,-46,47,4,36
78,-14,35,-13,6,-2,-1,-16
-128,-50,-88,-33,-52,-14,-4,-59
127,-25,-14,-22,14,-15,-6,36
34,25,20,14,27,3,4,-1
-128,4,1,39,18,9,-1,-59
62,11,19,6,18,1,1,-7
-58,-18,11,-4,20,-6,-10,0
41,9,6,-40,-71,-1,-9,19
1,-1,-11,8,2,-7,3,9
57,3,-19,-29,-36,2,-1,19
10,2,27,-17,23,7,4,12
-124,-10,-11,-6,-13,-2,5,-16
2,-5,-3,-15,14,-4,-4,-11
-17,-13,-3,44,-26,-11,-6,-13
-54,12,24,8,10,-3,4,16
127,26,21,12,50,5,10,14
-128,-38,-128,-19,-64,28,3,-12
-34,-14,-7,3,71,47,1,-24
-23,-25,-10,2,-118,-8,-13,-14
58,9,10,-23,7,-9,-3,15
-9,-1,2,19,-4,-9,-4,10
-10,-4,-5,-11,-86,-27,-1,-22
12,11,10,-16,70,0,0,3
9,1,9,26,-5,-3,0,1
6,2,15,-12,-30,-2,0,8
27,0,25,69,0,9,-3,9
-14,3,-26,-80,33,-4,-2,-5
40,2,-15,-20,32,-10,-6,-11
-69,-15,-21,-39,23,-11,-7,-6
32,13,-30,10,-65,49,9,22
-89,-16,20,-10,-8,-24,1,-10
-30,-20,11,34,7,23,-3,-30
-128,-14,6,16,-4,-3,-4,-29
39,-2,-44,12,12,-3,-2,13
64,-31,7,-8,3,-6,-4,12
127,56,48,29,30,-11,5,49
-26,43,40,-20,-23,-33,6,-18
-104,-95,-30,-36,38,103,-4,-66
62,-11,15,6,-49,-38,-20,0
54,11,1,-4,-10,10,-6,18
66,7,-1,-21,10,-12,-6,21
-37,-10,-1,-18,-43,-17,-3,-12
-60,5,8,23,70,10,10,-2
-12,2,-2,-6,-57,-7,1,0
-10,-8,5,2,19,-9,0,3
-6,-1,14,-50,-3,-2,-4,4
4,21,6,56,13,-4,1,15
52,1,-6,-13,-15,-16,-1,-3
-118,-11,-9,35,30,55,5,-2
24,-16,-14,-12,21,-4,-9,-6
-80,-5,3,-43,-86,-5,-7,-21
0,1,19,8,-20,-12,-7,-1
54,-3,-10,-13,5,-3,1,9
19,8,1,-10,-11,-12,-3,-30
-95,23,56,41,-15,2,3,0
-8,-49,-110,22,41,16,-5,-4
12,-6,-15,-23,-10,-19,4,12
-38,-4,10,35,11,-51,-6,5
37,2,-8,-5,71,110,-4,-9
-11,4,5,-21,-82,-5,8,14
40,-10,2,64,-67,-30,0,-14
-52,-6,-13,-70,-7,-15,-6,-20
-2,4,-6,-42,1,-10,-3,1
10,3,9,18,12,-2,0,8
6,0,6,21,5,5,6,9
1,-11,21,10,41,10,0,2
23,14,-5,-6,8,-12,-15,2
83,13,18,38,-8,57,19,41
52,-4,-9,-29,27,1,6,-17
-128,-24,-6,1,-87,-28,-16,-35
47,2,8,1,21,8,1,-10
-54,-14,-11,17,9,10,6,7
29,4,12,-3,19,2,8,6
66,38,69,29,-7,-9,-2,18
124,38,80,-60,31,-7,-5,2
-128,-52,-95,23,31,13,-17,-58
11,-29,-30,-17,-95,1,-12,-36
24,0,10,2,-13,-13,1,-2
44,2,11,12,-47,-2,-10,14
37,9,6,-7,30,-18,-1,14
22,9,12,-2,-13,48,14,26
0,-1,3,5,17,-14,4,11
-11,1,0,17,69,1,4,1
0,2,8,24,-23,-16,-3,2
-11,0,-2,-10,-11,-7,-4,-3
-18,-10,-11,-58,1,-12,-10,-11
-11,1,-16,23,-31,8,7,1
-12,-1,9,-18,-28,-7,1,-4
-8,-15,-6,13,2,-3,-11,-6
18,24,-5,74,26,-1,-4,5
79,17,29,-28,-7,-1,2,5
-68,-44,2,10,14,2,4,-6
-17,10,1,-27,-6,-17,1,-24
-21,25,14,17,4,30,15,15
40,-19,-30,-34,4,-7,-6,-12
-27,-14,-44,-26,-7,-12,-12,-8
60,1,22,16,53,20,2,14
56,3,23,20,-39,-28,3,52
24,-10,1,48,-65,-13,-13,-33
-128,-27,6,-47,36,66,19,-78
45,0,-7,-61,27,-8,1,1
31,-20,-15,28,-56,-19,-8,9
30,6,6,6,22,-10,1,15
17,-12,-21,17,11,-12,-1,14
17,-2,8,-15,-44,-5,1,10
-36,27,-10,17,43,7,1,-3
-14,-15,10,-6,-8,-7,-3,-2
-7,0,-1,28,19,0,2,2
-7,6,6,-33,-5,-24,-8,-7
-18,-6,25,7,-18,-8,-1,-10
-9,-7,-3,5,-93,11,2,-1
27,-18,-52,5,127,17,4,21
13,-11,-29,0,-37,-15,-11,0
-102,-4,21,15,3,-7,1,-25
35,15,4,-52,21,16,6,-1
8,-5,28,3,-14,-77,-12,-13
-45,-6,0,-6,-8,70,-1,-3
43,4,-40,4,-7,29,8,17
1,-5,-14,-5,43,-7,6,0
-35,-2,5,-18,-52,-31,-12,7
-4,-2,43,20,-42,2,-13,-7
41,4,-6,-29,32,-2,3,-7
-49,-1,-25,23,38,-3,3,-1
75,5,-10,-45,5,-9,-5,38
30,0,5,5,-10,5,7,-17
-128,-30,2,-8,14,-8,-7,-58
106,-2,-9,5,127,9,-6,-2
5,-8,59,9,-128,-28,-13,-6
36,-22,-116,19,-6,-20,0,-7
-10,4,-2,-30,17,28,5,12
50,25,21,27,30,9,4,17
-16,-19,-27,46,-34,-24,-8,-15
60,-10,-11,-80,20,4,-5,41
77,16,24,4,4,43,6,9
-128,-5,40,50,-8,-1,-2,-56
-30,-13,-28,-9,-8,-27,-7,-25
76,-8,-13,-11,24,26,-2,22
28,34,19,22,-41,7,11,11
-62,-22,0,28,14,-13,-5,-22
-73,-23,-19,-58,-5,-16,-4,-19
48,-2,1,3,4,-13,3,4
24,22,16,-10,17,3,-3,18
17,12,44,73,29,7,6,15
12,-12,-91,-22,-36,-23,-10,1
11,0,17,-15,26,34,0,-3
-27,-7,-1,26,113,14,4,-4
-4,16,15,17,-32,4,3,7
-9,-13,-23,-12,-128,24,-7,-6
7,-2,-10,-56,83,-33,6,10
-21,-9,35,69,54,-10,1,0
4,10,-5,8,29,88,21,-10
62,36,-61,-9,42,-7,-16,8
30,-22,16,-13,-28,-11,-9,-22
-128,-27,-12,1,-22,-8,-4,-28
127,15,-2,-1,46,2,-8,61
88,-10,-2,16,-4,-3,-4,-8
-128,-15,12,-17,-2,0,-1,-72
-26,-2,34,-5,1,0,9,-15
67,12,-90,-10,-14,-7,4,24
28,9,-19,-26,-16,-3,-4,16
55,-1,40,55,1,0,4,10
-7,2,29,32,-5,-1,-5,2
-8,0,-30,-4,41,5,0,9
38,33,-6,-5,34,6,4,13
-29,-31,19,-12,-59,-36,-9,-23
-39,-9,-13,-19,-101,31,-16,-7
1,-5,-10,-11,7,-3,4,-1
-2,15,11,13,-1,-9,0,0
97,22,46,-12,26,-26,4,8
-118,-35,-56,-9,15,10,4,-29
-13,-23,-51,11,-69,-11,-9,-4
26,7,26,44,61,49,8,10
46,12,15,8,111,23,5,20
16,8,11,-12,-128,-15,2,4
21,-13,-22,-26,-17,-24,-3,0
31,2,28,-26,-1,-5,2,24
-17,16,-31,20,9,-2,-4,-17
-72,21,21,1,6,-16,-8,-29
-7,-4,31,-5,30,2,2,2
1,-29,-46,12,53,10,-3,2
11,2,1,-3,-105,2,9,10
23,3,-17,-23,20,-35,-6,11
16,-5,-1,-5,-17,8,-10,0
-22,12,20,34,32,46,14,0
16,-11,-38,19,17,2,-7,-5
30,-10,-4,-21,-1,-20,-10,-9
-58,-13,-13,-2,-3,-27,-13,-13
-15,-1,11,31,0,2,3,-1
5,1,-1,-18,106,4,10,5
64,0,-13,-26,-92,-7,-1,45
117,51,90,17,-34,-9,24,41
-128,-38,-88,19,11,-14,-12,-42
-66,-34,-26,17,35,49,-12,-54
59,8,21,16,57,-4,-10,-14
45,-4,42,27,-20,-9,-6,4
26,3,-1,-77,-2,-1,9,43
56,36,28,17,-17,17,8,2
-128,-1,-6,-35,13,-17,-10,-26
0,-15,-30,37,-30,0,-17,-11
9,-5,-21,-24,10,-42,1,5
-3,-4,12,33,34,0,1,7
3,-7,-13,-24,-33,-5,-2,1
23,12,-24,-13,-59,31,3,12
56,-15,36,44,-18,2,0,14
-30,-6,22,12,121,-42,-7,-30
-128,12,6,10,-128,-8,0,-16
16,-14,-18,-23,-38,15,-6,-22
55,22,5,11,56,-21,-2,24
123,-4,16,-24,13,21,6,6
-128,-41,9,46,19,-19,-13,-40
24,-1,11,-4,24,-3,3,2
16,0,-9,-1,-37,-14,-2,0
17,-22,-18,2,-6,-8,11,11
22,17,37,-19,-40,-3,1,15
-5,47,6,9,100,-1,-9,2
-31,-11,-28,14,-37,4,-9,-18
-11,-17,18,24,-46,-23,-8,-9
1,-26,-99,-128,-58,-10,-12,-1
-3,2,13,-15,0,-8,-3,-2
31,-4,8,6,27,0,4,19
46,27,46,34,5,14,16,30
-10,21,-16,-27,-36,-25,18,31
-32,-14,21,-3,-2,1,-13,-40
-128,-25,3,21,32,3,-16,-64
-28,-15,-27,-17,-3,2,-6,-10
25,5,16,20,5,-20,4,19
57,3,3,36,-24,10,-2,1
26,6,8,22,31,15,13,22
18,9,29,-28,-3,8,3,29
29,-18,-77,-17,-78,-47,-15,-4
-6,-2,12,21,36,11,-4,-27
-36,0,43,73,10,2,-2,-40
3,8,4,-46,-13,-17,-6,4
10,-16,-34,-33,-10,6,1,11
5,14,26,31,12,-16,-11,5
0,7,19,-33,-47,-1,3,6
-1,3,1,15,54,20,5,1
14,-1,-30,-42,39,14,4,8
6,-8,-30,-13,-86,-8,-11,-4
33,-8,19,70,8,-17,-10,-5
-128,6,30,-75,-9,1,13,-11
-22,-34,-18,-7,29,-3,-3,-11
15,7,-4,-14,-16,-7,-6,0
11,44,55,55,12,2,10,6
32,5,-62,-43,-21,9,8,13
-2,-44,-15,24,52,-6,-9,-7
-35,-10,-2,-12,-21,-17,-2,-13
9,3,25,24,0,18,-5,2
27,8,-2,-14,34,1,5,7
-23,-30,-1,0,-66,-29,-16,-7
52,14,-3,-4,-28,-4,4,14
39,38,52,-14,82,11,6,8
-103,-4,6,4,26,-18,-3,-26
-36,-26,-55,-34,-29,33,-9,-21
80,-7,-6,18,-24,-30,9,9
3,23,37,8,19,54,5,-2
-128,-9,28,5,57,2,-8,-17
20,-11,-11,-16,-70,-3,3,-8
25,-4,-2,-58,-19,-14,-2,-5
40,0,3,15,56,-8,-2,21
66,15,-12,-30,-29,-17,-5,15
49,-1,9,28,-9,28,4,-8
-63,-22,-13,2,6,0,0,-3
87,12,30,31,18,-15,-1,8
-118,22,35,5,-24,3,10,-14
-15,-27,-66,-6,-21,25,11,-15
-128,-12,-11,-5,35,-28,-16,-28
23,-2,1,-4,-9,-9,-8,5
20,1,27,71,57,-38,2,13
20,38,7,1,-14,62,12,22
-6,-14,35,13,44,-11,-10,-2
-14,-28,-108,-43,-79,18,-9,0
20,-7,4,25,19,-54,-16,-2
9,16,18,10,-6,-6,9,15
-10,-4,5,6,-10,-13,-6,-7
-96,-36,-14,-20,41,8,1,-18
-35,4,-10,1,-53,-15,-5,-10
30,24,38,4,17,9,-8,-1
26,-7,20,-2,10,7,4,-1
-83,-28,-72,-36,2,-5,1,-9
15,6,3,30,1,-16,0,3
51,9,-1,0,-18,-1,-4,14
56,-5,18,-11,15,-20,-1,6
-90,0,29,24,127,18,18,6
51,13,-23,-41,-128,3,0,-23
-92,-19,-44,-34,-55,-27,-20,-32
13,-3,13,-1,38,10,-3,2
27,9,16,62,18,-1,-3,4
12,27,43,30,3,-7,2,17
51,0,18,-87,-7,-11,3,-4
-62,-40,-112,-41,1,5,-11,-20
9,-1,0,-8,56,-14,-6,-2
10,4,1,66,11,8,3,8
33,10,3,-52,-92,10,9,22
72,13,13,20,-9,-5,4,11
-29,-2,4,-4,44,-7,0,29
6,-8,-6,-13,-67,5,-2,-28
-128,-14,-3,29,9,-7,-2,-35
36,-8,-5,-57,-10,-9,-6,-9
39,6,12,-2,6,2,-3,7
47,-8,2,14,57,5,4,17
46,21,-8,27,31,4,11,12
-64,7,-4,10,-45,-17,-11,-9
-8,-8,13,16,-86,-3,-4,0
4,-9,-11,-32,11,9,0,6
17,-6,-4,5,61,-1,-3,3
-13,21,14,14,24,9,6,19
90,29,27,10,1,54,25,-6
-47,-39,23,-6,-5,13,-2,-11
-121,-22,-54,-17,10,6,-4,-22
-10,-3,-27,-14,-32,-19,-8,-11
23,-13,-11,-26,-4,-32,-17,-9
51,16,37,20,-10,6,-1,3
-72,-9,17,12,-55,-27,-5,-6
16,17,18,13,-5,10,8,16
0,1,-12,22,27,1,4,4
5,4,10,9,6,-7,9,-2
-5,-5,-12,-25,8,-1,-15,-8
23,8,9,29,46,-7,-5,0
0,-4,7,22,-51,14,-2,-2
-7,0,-10,-35,-36,-1,1,-3
-6,1,8,65,33,-5,-1,-7
-5,-6,-13,-74,0,-6,-5,0
10,-2,16,17,9,-9,-1,2
30,11,-8,-29,-12,-1,1,11
-16,-19,-20,-79,4,-15,-4,3
6,24,4,26,9,39,9,10
55,17,23,-3,-13,-11,-17,-2
-90,-19,15,-5,28,1,6,-45
-128,-42,-11,-6,-35,-2,-8,-42
54,9,15,24,-7,-10,0,1
42,7,6,17,8,-11,-8,5
31,4,1,-34,20,2,3,11
18,2,-3,-68,-45,-6,-4,7
6,5,14,50,-14,-10,-6,4
1,5,-4,21,-53,-36,-5,4
-7,0,-7,-42,-7,9,10,5
22,-19,-17,-1,14,2,1,21
16,7,-14,23,61,5,10,2
-30,24,-1,18,-22,5,0,6
19,-12,35,-8,-67,-20,-10,-13
-128,-25,-46,1,46,25,-2,-46
11,-9,16,-4,8,-16,-9,-26
52,16,16,1,23,28,17,27
74,8,5,-8,-50,-53,-20,37
83,3,-4,-23,-7,-13,-10,11
-128,-5,56,44,2,10,4,-47
-95,-40,-125,2,-6,-11,-12,-44
60,0,-6,-22,-6,5,1,9
36,0,12,-5,51,-5,3,5
23,-8,-11,-17,-13,-3,-11,13
12,8,-1,22,-2,-5,-7,6
1,9,3,26,-3,-9,1,1
-18,-5,-23,-22,5,-3,2,2
-18,-2,10,16,-8,-10,-2,-5
-4,-11,-32,22,8,32,5,4
-11,5,28,-52,5,-25,-2,-6
-11,-5,-26,69,7,1,-2,-5
-9,20,-17,-27,14,41,15,10
-10,-17,8,-8,-21,11,-4,-1
-19,0,10,33,-87,-24,-4,-5
-9,-6,-19,-24,-7,-8,-2,0
1,1,1,28,20,-11,-10,-6
0,0,3,-63,20,-4,-9,2
54,10,19,76,24,0,3,11
-6,9,2,-14,-50,5,11,14
-9,-13,-29,10,-30,-22,-4,-24
-32,-6,-13,25,94,9,-11,-21
37,-4,15,-16,12,13,-3,-7
-128,-11,0,8,-24,-12,-6,-16
46,0,37,11,6,12,-8,-5
17,11,-37,-9,-20,23,11,4
-42,2,24,-28,-18,0,-2,2
25,-1,3,-17,-1,-2,1,7
20,1,1,44,11,0,1,1
13,-6,20,28,27,-24,-4,2
31,17,6,-47,-48,-24,-5,27
26,19,-19,2,-38,111,15,12
39,-20,1,9,-23,-3,-20,-32
-45,-9,-17,-6,20,-1,-3,-6
50,4,18,-23,-17,-13,-7,1
-34,13,6,51,5,-2,2,0
19,-11,7,31,31,11,12,-4
-83,-17,-5,-15,-4,-9,-12,-25
-28,3,53,29,7,1,-7,-2
18,-10,-66,0,-4,-2,1,5
7,6,-4,47,9,-15,3,5
9,1,2,-91,4,11,-5,6
20,-7,-19,7,-30,2,5,24
11,-22,14,-14,33,5,3,-6
7,32,42,5,-46,14,11,-10
-21,20,-79,8,38,9,-10,-28
-58,-19,-7,4,7,-31,-28,-24
58,-7,-9,-22,-41,13,-4,23
-12,-17,-12,-10,-12,4,2,-1
-93,-1,3,3,-3,-11,2,-5
39,7,5,28,44,3,7,5
-58,-3,0,-46,-43,9,5,1
-6,5,21,-9,16,-13,-2,2
18,1,-2,13,8,-7,-2,2
-4,-18,-17,-13,-11,-15,-11,-8
10,-6,1,-1,-20,-4,-11,-14
24,-10,-15,-7,-18,16,0,12
12,-2,-7,-25,6,1,1,6
-12,2,-15,8,-3,-22,-4,-16
10,16,37,-9,28,15,16,14
-29,2,29,7,-1,27,10,-5
-101,-13,-33,18,22,-8,-9,-27
39,5,20,-58,-73,-31,-14,-14
25,-13,-26,-35,-9,-16,-12,6
23,0,16,10,52,33,8,6
18,10,13,29,-12,61,19,17
5,7,-15,-22,-15,-15,7,5
41,-9,-39,-30,2,-11,-11,0
-51,-17,21,-3,21,-5,-12,-12
-1,-5,-1,-3,-23,-18,1,5
27,9,-13,-26,-62,-22,-12,12
-14,14,15,2,95,16,16,-2
-41,-2,25,30,69,0,-1,-33
-21,-9,-13,-35,-79,-6,-11,-19
45,1,-12,10,-25,-19,-9,10
3,-18,-18,-2,25,5,2,-2
-24,-8,0,34,10,36,7,3
26,1,-3,-16,13,0,1,4
9,6,2,-13,4,-11,-2,3
2,1,3,12,-1,7,-1,2
2,-19,-5,-1,1,2,-3,4
65,17,30,28,5,0,0,20
63,4,20,6,11,0,6,5
-128,-49,-112,-57,-9,-45,-10,-56
24,27,-7,-13,8,39,0,6
49,9,-50,-74,-9,10,-11,-9
94,-19,-13,-17,-120,-26,-11,7
-73,-21,-2,-17,48,-9,1,-3
-3,-4,4,4,35,12,2,7
13,7,0,-2,3,4,4,-8
-83,0,10,8,76,-9,-1,-13
57,2,38,-21,-77,9,-1,4
-7,-12,3,24,63,0,0,-4
-62,0,-47,-7,-22,5,-4,5
1,-4,8,52,-36,-6,15,0
17,2,-3,-17,28,2,-13,-2
7,3,6,-81,1,-15,-9,4
4,4,5,32,57,7,3,3
3,7,3,23,29,3,6,7
-7,-8,2,-48,-88,-16,1,1
-17,-18,-9,-14,-26,7,-3,-8
-2,11,-16,5,1,5,-2,-2
3,-3,14,9,74,-9,-7,-3
-7,-4,3,-2,-21,-29,-7,-8
-11,-3,-12,-23,-3,33,-4,0
18,6,12,-7,-13,5,6,0
35,0,-13,31,-38,-16,-2,14
33,-16,-34,18,33,-14,-4,9
-33,19,24,9,18,0,7,-6
-55,6,19,-9,-19,-6,-4,-22
-53,-23,-11,4,24,-8,-9,-17
0,-6,-9,2,-8,0,3,-5
23,20,7,-5,-5,-4,0,15
3,5,57,-2,13,-8,-4,-6
23,-21,-108,25,17,-22,-6,-12
-17,-3,3,27,50,42,2,3
11,-1,4,-65,-50,-13,-6,-2
9,-3,-8,14,-15,-3,1,8
3,-6,-10,-12,-9,-22,3,6
1,6,10,14,-7,11,1,1
-1,1,-7,16,33,-6,-8,-4
-11,3,22,-8,66,-36,1,-2
16,3,-19,-73,-123,59,4,9
89,2,-15,-16,-54,-2,0,20
-11,-24,18,30,45,-26,-22,-8
6,36,-73,-13,-1,2,5,-9
-1,2,15,-5,6,20,16,-10
-128,-30,-20,-1,16,-2,-7,-42
41,-1,59,71,39,3,13,-4
83,-4,-82,-35,-2,-1,-10,13
44,2,-4,-10,36,6,-9,10
-8,2,6,32,-11,-14,0,11
25,-3,-1,-1,-69,-20,-4,-4
-38,-8,-2,3,27,27,5,-2
-5,-3,3,19,-74,-1,0,5
24,1,-4,-2,40,-7,-5,1
3,1,5,22,17,-9,1,6
3,0,-1,-1,15,25,2,-2
0,0,0,-2,0,-3,1,-3
-5,-2,-7,6,-13,-2,1,-1
-8,-4,0,9,17,-31,-8,-9
6,32,59,-56,-27,-25,-3,6
6,-1,-44,-35,11,24,-5,-2
76,3,-17,55,-9,31,1,12
-70,-12,46,-24,-59,-15,-12,-7
-97,-20,30,3,17,-9,1,-36
5,-16,-41,3,8,7,5,-11
12,7,9,0,8,-6,-8,-10
-2,-3,-2,4,3,-3,-3,-2
23,3,1,15,3,-6,0,8
15,9,20,4,-17,-8,-2,6
12,-2,3,14,28,4,4,9
4,-4,-12,-25,-25,1,-4,1
0,8,14,-24,-41,-32,-4,1
-1,7,67,115,29,-4,-3,2
8,-11,-38,-63,-7,24,12,5
17,-4,-39,14,19,-4,9,10
-12,15,40,-14,-23,10,1,-19
25,15,7,17,57,-2,-15,-1
116,-1,10,5,47,4,4,28
-14,2,19,-31,-128,-24,-10,-2
-128,-60,-128,-19,-60,-23,-17,-64
-128,-21,8,-1,71,-4,-14,-45
63,0,4,32,-13,-41,-6,7
55,11,27,30,40,44,3,15
35,4,12,12,22,37,10,15
12,6,10,13,53,32,12,20
14,14,-4,-4,-7,7,-6,3
7,16,23,0,-14,-12,-3,7
-8,-2,-11,-22,-35,-27,-10,-2
-6,-15,-22,-22,-20,-16,-4,4
-13,-16,-30,13,50,-9,-3,-4
-10,8,12,-64,-20,-11,-2,2
-16,4,-9,-12,20,18,0,-6
-7,-9,-10,-5,23,1,3,-4
-1,9,57,16,-64,-15,-1,0
-2,-8,-57,20,-17,0,-9,-3
-4,-9,-58,-60,0,-17,-6,-4
9,-4,-4,12,82,9,-1,-1
12,6,18,20,-83,-26,-9,1
35,17,10,-5,-17,6,2,-1
-98,-17,3,-2,-10,3,-2,-14
18,12,14,-6,13,3,3,10
97,1,37,20,18,6,-4,2
-93,-34,-58,-21,-10,-19,-10,-36
-63,-11,-38,9,11,-24,-10,-25
7,-2,9,-4,-21,-15,4,3
10,3,-12,-36,-11,44,9,2
17,8,1,20,6,-11,-14,3
45,10,26,-8,16,-14,-7,-1
-3,-16,-23,43,38,18,8,14
-6,-7,-23,-96,-17,-28,0,-12
-29,7,12,4,-33,-13,-10,-11
0,-5,10,-28,-128,-29,-17,-3
9,-10,-21,5,19,-49,-3,7
16,-3,-5,9,49,96,10,1
-9,16,14,2,3,-14,7,-3
1,-4,0,14,-4,-8,-5,0
1,-5,-14,1,48,-2,0,-4
-3,-7,1,16,-5,-17,-12,4
12,1,6,-25,-5,-12,-1,0
18,-4,-26,5,1,8,-4,-8
1,6,17,17,-14,-2,-4,0
2,18,66,12,0,-1,3,2
19,-21,-72,20,0,1,-6,3
-7,3,-26,-51,1,2,-6,-2
-26,8,16,-15,-64,-19,11,14
75,5,14,4,28,8,11,6
-46,-28,7,6,32,9,-5,-23
-88,-6,17,8,91,7,3,-16
39,4,9,52,-103,-31,-1,8
51,6,4,-8,-49,-7,-10,2
-61,4,-22,-20,-2,8,0,-14
21,-15,-12,28,27,1,0,-10
16,-3,-5,-98,53,8,0,6
23,-2,4,-30,-72,-27,-6,4
10,-12,-22,30,-15,-14,-12,-1
11,10,6,13,48,15,6,5
5,7,18,30,-10,-2,1,1
2,2,21,-44,-24,-7,-1,-3
-1,0,-52,-12,6,-18,-5,-1
3,1,42,15,-4,13,-12,1
37,-11,-40,-2,7,-7,-1,9
-57,-6,15,-7,-4,-22,3,-10
-30,-15,7,1,21,23,3,-6
20,-2,-24,39,-19,-10,4,-2
15,22,26,-26,12,34,1,9
-21,-7,-3,9,5,13,-2,-8
-28,-9,-14,-45,16,-20,1,-18
39,27,29,41,-119,-13,6,18
127,19,6,78,33,-4,-10,27
-50,-30,-16,-5,61,16,-5,-28
-20,-10,8,-6,-69,-20,-13,-28
34,7,3,-1,-20,-16,-4,-1
18,4,-1,-4,25,8,3,3
10,-1,27,24,30,6,5,8
3,-4,-22,4,20,5,5,9
3,11,18,40,-1,-12,0,6
18,3,0,-39,-29,9,8,17
13,2,1,2,41,-6,5,6
79,24,35,31,-5,5,-8,13
-56,-9,8,-27,5,-12,-7,-6
-128,-18,-45,-5,-9,18,0,-41
-60,-26,-2,-19,-3,-19,-15,-37
-6,25,48,-5,-51,23,-5,-11
25,0,25,53,-13,-21,-1,1
22,-13,-32,-39,20,19,4,12
19,-2,-2,-4,6,3,2,11
12,8,11,10,-12,-33,-1,10
9,5,1,1,32,46,24,13
-18,-5,-10,-31,99,13,-16,-8
20,17,12,38,-23,-2,-2,8
23,-4,-5,-34,-103,-26,-17,-15
-57,-10,-6,-39,-51,-39,-8,-12
-3,-5,23,43,5,5,3,1
-4,-8,-66,-2,26,2,2,0
0,4,9,5,2,2,-1,0
2,1,41,10,31,24,5,4
0,-4,-4,11,12,-9,7,4
3,12,-47,5,30,-35,-2,6
20,2,33,-17,-40,2,-15,-11
-76,-17,-24,110,77,54,10,-1
43,11,8,-128,47,-15,-17,18
38,2,-19,2,-128,-29,-6,4
-128,-21,0,9,26,-23,-7,-76
-48,-18,-3,26,28,12,3,-37
26,-3,3,25,54,-15,4,6
39,8,1,-12,-48,5,-2,19
30,5,-7,-23,6,4,5,14
18,3,-1,8,6,-14,-3,12
0,-6,-2,-2,-4,-36,-11,5
3,7,13,7,-6,55,10,-8
11,15,-2,-10,-2,12,-1,8
38,-11,39,-11,30,-29,-11,-15
-54,5,-1,-13,-14,11,-4,-14
8,-18,-74,-19,-17,-17,1,-1
-3,-1,7,-12,-18,-2,0,-4
-48,-2,33,29,0,-7,-6,-4
7,4,14,-1,5,-4,-1,1
-1,2,2,5,6,-7,-1,1
0,2,2,-3,6,-11,-4,7
-6,-7,9,58,38,-70,-8,-6
13,22,21,-49,-50,127,25,21
5,10,-2,54,-2,-58,-28,-6
-6,-24,-33,-80,-42,10,-7,-20
-15,-11,14,-15,48,49,0,-7
-33,-4,-27,-13,-70,20,-4,-9
26,-2,-7,2,52,-16,0,-3
-71,6,63,35,18,-9,-2,-7
16,11,3,-7,-8,-30,-2,5
26,-8,-20,-18,-35,-11,-2,12
-13,-1,7,5,63,41,8,5
19,-8,-13,23,-17,13,2,6
42,10,10,-10,-14,-8,-15,0
-56,0,6,10,-5,-17,-8,-17
-27,-14,-21,-23,-47,2,8,2
69,0,18,-13,-7,-2,1,-7
-50,-11,3,10,17,1,-1,-13
17,2,-1,-32,4,-16,-2,0
20,8,-5,22,-5,-11,-10,7
114,12,13,27,24,40,14,18
-77,11,-2,14,16,-1,-2,-3
-10,-22,-17,-61,35,-8,11,-14
-6,-1,0,-26,-14,2,2,2
9,-15,-14,4,-76,-16,-14,1
-1,-3,-14,10,20,0,-6,-3
-9,10,52,-5,-1,-10,-5,-12
-4,-22,-68,-9,8,-11,-7,-13
-8,-2,-18,7,18,-8,1,3
4,3,2,2,-9,30,2,3
3,0,6,-6,0,-1,-1,4
2,-5,-2,-20,-11,-7,4,9
-1,6,5,37,8,-6,13,8
-3,11,13,10,14,6,-1,10
27,8,23,16,37,11,-14,-4
30,12,3,-28,23,11,-10,4
-52,-31,-115,16,-91,3,-5,-15
5,-32,-22,-80,-68,-41,-20,-38
-128,-1,3,-23,-9,2,4,-21
3,-2,15,5,23,18,8,-4
-46,-6,2,11,80,-8,2,-3
32,-1,3,-3,-9,17,-3,2
30,9,3,-18,-95,-28,-6,12
18,2,0,44,83,18,-5,5
13,-3,-2,32,42,0,1,5
4,4,19,-6,-64,-12,-7,6
10,12,8,-38,15,15,4,9
-5,-1,-20,-10,-56,-12,-5,-11
-16,1,5,-9,26,54,3,-12
-8,-11,22,13,-12,-9,4,-6
1,-1,3,-17,10,1,-3,2
1,1,-4,5,32,-11,-3,0
-5,-4,-16,-2,-30,-28,-6,0
-5,0,9,4,21,10,2,1
1,-2,-1,0,24,31,8,3
1,2,9,79,-22,-7,-1,4
-18,-15,-10,-85,-40,-28,-12,-7
-6,-5,-14,-64,-41,1,2,-11
22,0,14,20,38,-3,-1,19
78,41,43,19,33,13,2,12
-11,0,-52,-7,-27,-7,-7,-26
-128,-44,-38,-13,0,-7,-8,-43
16,-17,30,-3,-3,-8,-6,-25
25,7,51,22,9,2,-2,9
27,2,35,-3,5,-27,-2,9
29,-3,-45,16,29,39,6,16
9,3,1,-1,1,-25,4,7
4,0,-4,-2,-105,16,0,0
-6,-4,4,10,-11,-5,-6,-2
-9,-7,-15,-69,-51,3,-1,-3
35,11,5,44,127,4,9,26
-48,-2,6,20,-128,-61,-16,-17
-18,-15,-18,-34,-22,2,-4,-12
13,-3,2,-11,37,27,6,-5
28,2,11,0,6,-7,2,-3
-38,2,32,55,8,-12,-3,4
0,-1,1,72,12,2,3,-1
-6,-5,-24,-44,-7,-6,-7,-13
64,28,12,7,-5,-12,5,15
-8,-19,-34,-29,-15,-12,-3,-4
-128,-19,15,64,-2,3,0,-35
-21,0,0,-62,21,74,16,6
31,-7,0,3,0,3,-6,7
42,4,11,-8,-27,-6,3,16
5,-1,-31,-15,-18,-7,8,-16
-1,16,13,16,18,-11,-6,-5
-21,-14,-9,-8,41,-12,-22,-14
6,-11,-7,-14,-78,-5,-4,1
11,-1,-1,15,-21,0,-1,3
13,10,0,-26,14,9,14,17
21,-2,16,-11,15,-4,-6,-3
-40,-1,1,-5,5,39,2,1
-1,-14,5,-1,17,-26,-2,4
4,4,-37,-17,35,4,6,9
78,20,31,68,-16,1,0,12
-62,-6,36,-34,-10,-14,-12,-20
-38,-13,-70,-8,-10,6,-8,-21
-24,-19,1,-6,-34,-7,-9,-23
-17,-10,20,16,19,-14,-2,-1
22,10,1,-13,9,5,1,6
18,7,6,3,64,10,0,10
48,5,-5,-7,-1,9,3,21
-12,2,28,29,-86,-4,0,-14
-55,15,0,28,2,-7,-4,-16
8,-4,36,-13,-7,-13,-5,-4
-4,-25,-128,-31,20,-8,-11,-11
9,-4,1,-8,23,-6,5,11
-5,-1,5,30,9,42,3,-7
0,0,-6,-27,-29,4,4,3
0,0,-7,-14,-10,-46,-11,0
-4,-6,4,12,6,37,3,4
25,7,-1,-7,1,-24,6,15
103,3,-6,28,-8,-17,1,6
-73,-10,5,-5,32,-2,-6,-4
-60,4,30,-23,-41,-20,-6,-20
-50,-19,-59,-1,8,-26,-14,-14
18,0,1,35,-26,35,3,-7
28,10,19,25,-10,4,5,12
24,-11,13,-56,-3,-12,-2,5
26,5,22,28,15,9,-6,8
29,24,-25,22,-4,-9,-4,21
-18,-12,-69,-24,57,8,6,-10
-14,-11,10,-3,-41,-12,-15,-24
-11,-9,4,-7,-15,-14,-9,-10
14,4,-2,6,40,13,0,6
10,5,8,6,-24,0,2,4
0,-1,-2,-5,4,-21,5,17
15,7,3,-14,2,20,9,12
25,8,13,26,-6,-55,-13,-10
-65,-13,-20,11,16,86,3,-19
20,-8,16,26,67,2,-2,-7
-68,2,-5,-38,-65,-8,-7,-11
0,-1,-7,-13,-51,-25,-4,6
12,1,-4,-13,0,-21,-4,12
49,6,20,-5,28,10,-1,0
-60,4,-47,-4,-35,-20,2,-6
3,-23,-2,-8,-12,23,-2,-4
9,0,-9,10,15,-8,-4,3
44,7,-4,-22,7,-27,-2,12
-5,-3,3,61,47,29,8,5
-90,0,1,-23,-37,4,-2,-20
1,-4,13,28,-26,-21,-15,-19
35,6,23,8,3,-25,2,13
38,-2,-12,8,14,8,0,6
-49,6,48,38,19,9,6,-9
-27,-20,-128,-49,-12,-16,-19,-9
32,-12,-3,-16,-45,-19,-3,7
-7,-9,-47,2,24,-15,1,-10
-23,9,18,6,-8,-29,-17,-23
9,8,13,7,-28,80,5,7
20,3,6,12,68,-13,9,1
25,0,16,-6,53,13,6,17
53,6,7,-21,-118,-9,-9,11
-45,-16,0,0,15,-12,1,-12
-83,-15,-7,7,19,-11,-2,-16
19,11,23,15,-6,-20,-2,-2
29,13,7,34,21,22,1,2
19,-9,-27,-20,-2,-5,-7,5
17,-7,1,12,22,53,11,10
12,4,-9,-6,39,3,9,16
-7,-10,-6,20,-8,-30,-23,-36
-61,-9,-8,-14,-106,-16,-7,-9
75,20,19,7,19,12,5,21
41,8,45,-3,26,-1,5,-12
-90,-19,-55,-31,-60,-44,-13,-19
29,-9,-36,-2,20,7,-4,1
3,-3,6,-14,-4,46,-1,0
7,5,19,14,19,-12,0,1
17,2,2,7,0,-3,0,12
1,-7,13,6,6,-16,-6,-1
-3,-10,-32,-60,-5,-5,-2,0
8,-1,-12,-5,-6,-10,0,-10
32,7,-1,-6,-4,-2,-8,11
18,7,19,11,-8,-2,3,3
13,4,7,-50,-5,0,0,21
33,4,-2,40,3,-4,-1,-7
-115,-18,-10,18,-3,-1,2,-17
7,11,19,41,-13,-55,-8,-30
-7,-12,-25,-39,-25,34,-7,-15
21,-11,-10,-7,0,7,2,7
17,-1,-7,-12,-17,16,4,9
8,-3,-3,6,27,-5,-1,10
9,18,17,3,-6,-14,-4,8
2,0,39,9,35,-2,-1,1
-2,-17,-30,-39,-67,-4,-3,-5
-12,-18,-58,32,-15,-21,-11,-8
0,10,4,-25,0,5,-1,-2
4,10,18,68,11,16,3,1
40,7,14,12,20,-31,5,5
-12,-2,4,-14,-11,5,-3,6
53,0,-2,19,-9,-8,-8,0
-126,-4,5,2,16,3,4,-18
61,-8,0,-5,8,-6,-12,-13
-43,-9,-4,-2,-11,-15,-4,-8
-15,-6,-11,-13,-4,-3,4,2
43,8,9,39,49,-4,5,8
16,13,5,-36,-8,-8,5,14
-2,-2,4,34,-57,6,-14,-15
2,-3,-10,-2,-4,-11,-8,-18
12,7,4,-55,-26,46,7,2
-1,-6,-20,-4,-7,-8,-1,-3
-1,11,21,17,84,36,2,3
-1,4,42,2,5,-24,1,2
-3,-14,-95,-11,-22,-7,3,0
1,-4,5,10,-31,-6,5,14
37,-22,-3,1,-3,-10,-6,3
26,-4,-49,-23,-9,-2,-10,-13
-107,-9,21,-18,20,-21,-8,-21
-33,7,17,20,12,6,1,-16
-19,-14,0,1,-37,9,-7,-18
37,1,2,-9,-14,1,4,5
38,3,-5,3,43,-6,2,9
21,0,-5,-17,-20,-7,-9,6
68,18,5,84,15,-11,-1,27
-7,8,12,-76,10,4,-2,-12
-128,-27,-13,10,-6,24,1,-32
-7,-3,4,55,45,-2,5,8
22,-2,5,-71,-36,-1,-1,9
-2,-4,-12,-58,-60,-33,-20,-39
21,-17,-17,-14,-66,-8,-1,7
21,29,32,6,56,59,22,22
31,16,-12,-19,30,-7,-1,-8
-62,-21,-8,-4,-87,-14,-12,-17
-21,-2,23,27,46,-15,1,2
-4,-13,-16,-35,23,-2,-9,-2
-1,-9,-20,47,-21,-4,6,-3
4,5,10,4,-3,-36,-8,12
39,8,10,4,65,20,3,13
23,2,13,-24,-90,-6,-2,-11
-38,7,23,-8,-5,22,2,1
16,-11,-14,15,-13,-15,5,-11
-71,-9,7,-9,4,-17,-7,-23
16,-7,-48,-10,28,-17,-5,4
3,9,13,-17,-9,43,9,13
47,-1,8,-3,2,-6,1,15
-114,-7,11,43,33,-15,-8,-30
49,15,14,14,-2,1,3,-15
-43,-1,13,50,-48,-24,-4,-4
5,-11,-9,-58,-4,6,-8,1
7,-4,-5,1,1,-1,-1,-1
26,6,-4,13,15,20,4,6
4,4,6,-10,6,-7,2,7
-3,-4,-3,31,0,-8,-7,-9
-9,-15,-11,-23,-24,-21,2,-5
-11,10,8,8,-1,5,-2,-2
27,15,4,5,12,18,3,11
3,-12,-9,5,6,11,3,13
11,-12,45,18,15,-20,-10,1
-33,15,9,-21,-47,-6,-17,-34
-12,-31,-60,-13,-19,2,4,-13
0,-18,-30,-27,22,10,1,-1
-44,-1,25,56,21,15,5,-5
15,5,20,2,-44,-21,-6,3
10,-2,-20,-32,-41,-4,-3,5
-3,-8,-7,3,38,-7,-4,-1
9,-3,7,8,22,-44,6,16
8,0,27,-1,-4,17,-1,4
20,6,-60,-10,2,19,10,10
63,27,8,10,-22,-4,1,-11
-128,-14,22,-10,23,-27,-25,-46
-91,-21,-15,38,8,10,-8,-22
12,-7,-13,-44,-23,2,4,10
19,1,-1,-10,-13,-5,3,10
32,3,-4,18,10,-20,-5,16
65,-1,1,-13,-25,1,3,26
-60,2,-14,5,12,-22,-4,-22
-51,-8,-1,-1,0,-12,-6,-20
56,4,-3,19,-35,8,-3,12
35,22,12,-50,-17,18,-2,15
-49,-13,-15,10,27,-29,-7,-12
-44,-9,4,18,57,-1,6,-9
13,-8,-8,-26,11,39,-4,-7
8,-5,11,18,-24,-11,1,-1
8,1,-6,-1,-11,-8,1,7
27,8,14,-2,20,-2,-2,10
-2,-2,-12,-6,-38,-8,-1,-4
-15,-15,-20,9,-2,-22,-5,-20
48,15,11,-4,16,6,9,38
62,8,13,-3,-15,43,9,-1
-128,-50,-72,-18,39,13,-9,-48
99,12,9,34,-5,7,0,11
42,16,-2,-46,-56,-29,1,3
-103,-3,19,24,-8,12,-8,-34
52,-5,0,-7,1,-7,-12,-9
34,-9,-25,-38,3,-6,-2,5
25,6,-3,41,-3,-17,2,10
13,9,22,-12,8,-17,2,19
35,0,-2,4,30,-3,-6,12
-9,8,38,11,15,-18,-7,-13
-27,2,12,-33,-17,80,9,-16
-55,-6,-69,1,32,-11,-4,-13
-2,-9,-10,30,-34,11,-4,-2
1,1,19,45,-27,-12,-4,-1
10,3,6,4,2,0,2,0
-8,-10,8,-1,3,-9,0,-1
-4,-4,1,11,4,-6,-4,2
-2,2,-2,2,2,-6,2,-2
1,3,5,47,6,-3,-11,5
15,7,-10,-70,2,-2,1,8
6,4,32,4,28,14,8,6
-25,-13,-41,1,-2,-12,-7,-16
-2,-11,-16,2,-22,8,1,-23
71,-17,-42,-17,-14,29,-4,23
50,22,4,4,7,-13,-13,-5
-128,14,87,17,43,12,4,-49
-28,-30,-80,-33,-17,-20,-5,-14
7,-13,-17,-17,-37,-8,-10,-3
39,12,20,8,35,5,1,16
30,5,40,36,19,-14,2,6
15,-7,-89,-14,1,-7,8,22
62,2,7,23,24,-40,-7,0
-76,-10,-1,4,-11,81,3,-5
-6,4,-16,-18,-66,-27,-13,-5
-6,-2,8,-3,9,-9,-4,-11
36,-1,-8,38,14,3,-1,5
-17,6,8,-17,14,8,6,-1
-42,-15,-1,-9,14,-8,-3,-17
3,3,0,-2,8,-5,0,-2
2,-2,-3,2,0,-5,-2,3
0,0,2,1,2,-12,-7,5
-2,3,9,25,0,-5,-7,-1
-4,-1,-4,-5,-10,-20,-1,1
14,2,-2,-44,21,17,7,22
53,-7,-19,9,-43,-12,-6,19
20,1,-24,-15,52,2,2,-25
-128,-2,16,-2,-39,-3,-8,-37
46,-25,-17,-5,-22,-36,-15,-18
51,5,0,-12,-17,18,3,8
-16,-4,-23,-2,18,2,1,5
-27,-3,-6,-11,0,-8,4,4
-45,-2,-6,9,8,6,-11,-11
18,0,12,9,28,-1,-3,6
20,-2,-4,-16,0,-29,-6,2
18,15,1,1,-46,-34,11,12
10,2,20,-58,6,44,5,1
-15,-3,18,-16,-114,0,1,-4
1,-2,-42,23,61,-14,-7,3
37,3,-44,4,-22,-24,-4,1
-42,-3,27,0,74,21,1,-25
28,-2,15,-1,-25,-6,-1,0
-49,-6,16,6,-3,-10,-7,-4
14,0,9,-3,8,-6,-2,-3
10,5,-3,-6,4,7,0,7
32,-4,-1,9,8,9,7,24
86,7,0,30,10,-27,-4,3
-91,0,-6,-38,-42,11,-8,-15
-9,9,-23,10,-57,-3,0,24
101,15,49,11,-3,-9,4,9
-128,-41,19,-17,77,11,-10,-58
29,-33,-128,-7,23,3,-5,-25
-16,3,11,10,-24,-25,-7,-3
41,8,4,-10,-21,-6,5,11
27,12,13,11,11,2,1,12
16,13,13,32,9,2,2,9
5,3,1,-53,-24,-25,5,9
7,-3,4,-6,-22,-62,-4,7
-2,-19,11,47,24,87,18,7
7,11,15,0,-34,-18,2,6
10,31,-24,-21,-15,-25,-8,3
-9,6,38,-36,-34,0,-22,-21
3,-8,42,-11,24,-4,-7,-12
-21,-23,-90,16,-45,-17,-8,-3
3,-2,-1,6,11,-18,1,-7
-54,-13,-1,18,-26,-2,-2,-9
7,-3,3,-1,-16,-1,9,2
9,7,14,-49,84,18,-1,9
54,1,5,27,-37,-13,-7,10
-20,-3,-4,-4,-45,-7,-3,-4
-18,10,3,13,13,-12,3,0
55,-14,-37,-89,13,19,-5,12
-13,-17,-4,-6,3,-12,-9,-6
-94,-18,-12,9,-3,-16,-5,-16
6,-2,10,7,7,-2,-2,-16
-6,3,-7,-19,-2,0,-3,-6
40,11,-1,11,64,11,0,9
23,13,8,-3,-74,-6,6,-1
-55,-2,-2,-2,40,0,-2,-5
27,-14,-11,-7,-33,-14,-15,1
3,1,7,-17,-34,-6,2,6
40,12,-5,17,17,14,2,12
16,9,10,-27,-88,10,0,-15
-102,-18,-16,27,66,6,6,-19
36,-2,14,1,5,1,-2,7
-58,-11,0,-3,10,-20,-9,-11
42,-9,-23,-19,-15,30,0,-14
-32,-8,-10,5,17,2,6,4
34,17,48,19,27,-7,3,16
42,-3,9,-7,-70,-19,-4,15
-59,6,-24,1,9,-15,-9,-11
-73,-2,-42,-52,20,49,2,-13
-21,-10,30,37,79,1,-2,-15
56,-8,53,-46,-101,-11,1,-4
-26,-18,-126,-29,10,-14,-8,3
15,6,12,35,-79,-15,-4,15
7,4,4,5,25,-1,-4,-7
2,7,12,-2,41,4,9,5
16,-7,5,29,28,0,-5,8
1,19,-2,-21,58,-2,-8,6
34,-9,3,-17,-58,-6,-11,-16
-117,-23,-5,20,-58,-21,-2,-16
9,6,11,0,75,38,9,-2
12,-2,-15,-9,-22,4,-2,-10
5,-6,-9,-37,-109,-30,-4,2
20,3,8,-9,23,10,0,-3
-2,9,3,-1,27,6,-1,2
20,11,54,1,43,-8,-1,10
12,-16,-73,-30,17,-30,-3,-5
-55,-17,-31,39,4,-17,-10,-15
7,0,19,36,-51,52,10,4
16,9,21,-82,-37,-4,-3,4
-3,5,5,14,34,-20,-8,0
3,-4,-9,12,31,9,0,0
43,1,-2,26,-6,2,1,-1
18,4,-6,-16,12,-6,1,3
-11,-2,11,-14,5,-9,-6,-6
-48,-15,-15,-20,3,-27,-22,-44
18,5,-9,-14,-49,-8,-5,-6
18,2,55,19,7,33,14,6
14,6,-10,5,-35,2,5,13
59,20,5,10,8,-13,-6,23
64,-16,-23,0,1,5,-6,-11
-110,-24,-3,8,34,-8,1,-21
1,5,-5,-34,7,-7,-11,-5
-14,12,18,11,-35,-3,2,5
5,1,-7,-53,-67,-21,-4,3
7,-8,-6,56,43,32,4,2
4,9,43,-7,-21,-8,-8,-6
-3,-14,-18,68,13,-15,6,-5
5,-3,-25,-74,47,19,-11,4
51,16,-31,-91,-1,31,-6,17
57,-3,40,3,28,2,-1,-6
-91,-8,-4,15,45,5,6,-8
-62,-7,15,3,-115,-24,-10,-19
23,-11,-14,-7,-4,2,1,4
22,0,-5,5,2,-11,0,2
11,4,0,-16,8,-7,-2,0
11,4,9,9,16,1,2,5
14,2,-1,2,29,-8,2,11
26,7,4,-4,53,30,14,18
84,3,-14,7,-76,-6,-11,19
-77,-15,-11,0,3,12,-9,-30
-11,-12,6,0,-15,6,-15,-48
16,17,85,13,-13,-15,-5,-19
22,1,26,-6,33,-11,9,12
35,-25,-64,-8,6,11,7,13
-20,6,9,5,12,-5,-9,-1
5,21,27,-17,-6,-3,0,5
-9,-17,-20,-8,5,4,0,0
-10,-3,5,3,37,-10,2,-1
9,6,10,-18,-46,-14,-9,1
4,5,-14,30,-10,-36,-14,3
50,-6,-16,-6,-51,-10,-4,9
-44,-20,28,33,59,-14,-2,-22
-109,8,-27,10,8,47,5,-28
-22,-5,-13,11,26,9,-7,-10
5,-2,19,-49,45,-8,-3,-4
51,6,-1,-5,-115,3,-4,15
27,6,6,-3,3,-13,4,10
-4,-10,-18,1,12,-4,5,-7
-11,-6,-1,7,16,3,-5,-10
8,3,1,2,4,-4,-4,2
9,-1,-2,4,2,-2,5,0
4,1,2,3,19,-7,-2,2
2,3,9,26,-6,0,-4,0
-7,-11,-8,7,-41,-13,-12,-3
27,12,8,4,59,-30,5,20
22,0,-5,-7,51,9,-1,7
-19,-8,-23,-45,-112,39,-8,-18
-52,-13,4,-1,38,33,4,-28
16,12,21,21,-91,-50,-11,-14
-47,17,44,-6,9,24,-10,-2
30,-4,20,-19,4,-18,-3,16
43,-13,-110,-32,38,-12,-12,5
15,-12,56,-20,-23,-3,0,7
-5,-31,-85,14,11,0,-1,-9
-44,-9,16,2,-5,-15,0,-9
25,8,32,36,9,-2,5,11
7,9,14,27,52,29,10,-1
-11,2,10,7,-29,-10,-4,-5
9,-2,-1,-1,-47,-10,-9,-4
34,6,-5,-2,-20,-4,-2,7
21,-1,-2,-21,27,3,1,-4
-98,-5,-3,0,10,0,1,-14
3,-8,-6,-1,11,-2,-4,-13
15,-2,-5,-3,-14,4,-1,5
8,-5,-8,-6,62,-14,-4,4
59,6,1,23,-67,-11,3,18
31,4,1,24,7,-13,-5,33
-117,-26,-10,-18,-87,13,-6,-25
-98,0,-26,-22,-25,8,-7,-56
37,19,25,14,23,-9,-9,-11
29,13,36,-33,30,-15,-5,18
110,-8,7,33,15,-7,6,10
-103,-32,-26,-4,8,4,-8,-17
-65,-8,-4,-1,-1,-4,-1,-4
12,2,7,1,-6,-18,6,4
33,5,-11,-16,20,-2,9,18
37,11,33,8,30,72,25,21
14,1,-18,42,-32,-31,-10,-9
0,-26,-69,-128,-63,-30,-14,-11
-5,-5,5,-22,-6,0,-9,-15
-14,0,19,64,57,17,-6,-6
12,3,7,-20,-27,-13,-4,-5
-17,1,9,27,8,1,-2,1
9,-3,14,-4,25,-20,-2,0
-6,1,3,-3,-9,-5,5,4
15,-7,-28,-3,-10,-4,-2,-5
-54,-3,9,34,52,-38,-3,1
27,7,8,-58,-90,84,18,20
21,-15,-9,3,78,2,-7,-6
-66,-5,-10,-13,-128,-11,-12,-42
-21,-13,-3,21,-35,-12,-2,-19
11,9,4,10,54,-5,-2,-6
13,10,6,8,-7,-4,-10,-3
17,0,1,0,-16,-31,1,7
15,-7,-9,-3,32,50,8,17
8,11,-1,31,40,2,4,3
-27,11,20,-27,-64,-7,-6,-6
56,-14,-39,-19,-11,-2,0,19
76,-2,3,17,6,-25,13,7
-128,-12,-19,-13,9,0,-8,-30
-13,-13,-4,-25,-9,-3,-8,-12
56,-3,-3,-29,10,-11,2,14
23,-2,-7,65,9,-13,-14,0
51,11,15,-39,-14,20,1,5
20,-6,-4,-54,14,-16,5,15
41,9,22,29,56,6,9,10
-75,1,-25,-17,-46,70,2,-16
-55,-7,-30,-4,-74,-22,-19,-40
16,-17,11,-12,40,-24,-14,-17
26,0,4,-5,-2,6,1,19
24,0,8,16,39,2,7,14
17,9,18,8,40,4,2,9
9,9,-3,2,-21,-1,1,5
-1,-8,-12,-8,-18,-6,-3,2
-1,-1,0,-6,-4,-4,-3,-1
-5,-3,-1,19,9,-1,2,1
-7,-17,-13,-17,1,1,1,-2
30,8,21,-19,10,4,7,25
11,19,11,10,-22,11,9,3
-51,-9,50,-35,-9,-6,-5,-22
0,-9,-88,-2,-40,-12,-19,-18
34,-1,7,34,38,-17,-10,-17
-101,-16,47,-5,72,1,5,-9
-3,-16,-83,0,-84,13,0,4
-8,-5,0,-10,2,-3,0,6
14,3,3,3,15,0,-1,3
11,2,7,31,-20,-7,8,9
73,10,5,-46,42,-14,-1,33
102,2,19,14,47,46,12,25
-128,4,20,-9,2,-11,-10,-32
-40,-10,-60,-6,-33,-9,-12,-62
55,-11,-14,-21,-57,12,2,-2
75,1,11,-28,46,9,7,19
27,11,10,16,-64,-4,0,23
-6,2,20,14,-3,-5,-3,-1
-12,-19,-46,-1,10,-3,7,-9
-14,2,-1,-8,21,-12,-9,1
-31,-9,-5,-8,44,-12,-11,-3
2,1,8,8,3,2,-4,5
-2,11,10,7,-84,2,1,-1
2,5,1,-17,2,18,7,10
-16,-9,3,-4,20,-4,2,-2
-1,2,7,-6,13,3,8,5
16,-3,-12,-13,8,-9,-2,-1
23,7,-2,17,-2,-15,-5,-3
56,3,-6,23,-13,0,-2,10
-92,-12,2,4,22,-5,-1,-5
-16,-14,-14,8,26,32,0,-11
-32,-6,1,-54,-66,-34,-11,-10
-35,-1,-12,-3,40,53,14,-11
8,-15,-32,9,88,-32,-3,-8
25,16,27,2,16,20,-2,7
17,3,18,15,-81,9,6,8
-57,-17,-6,8,-31,-24,-8,13
54,6,-5,28,12,2,2,7
-91,-6,11,-6,67,4,-2,-27
12,3,-51,-7,-28,-10,-11,-19
34,2,-15,-31,10,-3,-4,10
62,1,3,8,23,-12,-3,1
-99,-13,7,-22,-55,-6,5,-7
-35,-1,2,20,82,24,1,-4
12,-10,-8,-25,-3,14,3,5
11,-5,2,23,-26,-4,-2,3
7,-3,-15,-28,25,-11,-3,-2
6,-2,13,1,33,0,11,6
3,4,30,-8,-93,-40,-19,6
7,16,-25,-6,-56,22,-5,-5
41,-1,-19,-13,22,0,5,-2
-45,-10,-13,10,14,-4,-3,-24
-45,-20,1,-30,15,12,-1,-19
2,-6,17,-23,-28,10,-4,-7
0,-8,-68,57,-6,1,7,4
40,-2,2,-32,-9,-18,-1,6
12,5,2,-9,26,33,7,9
20,16,19,-4,40,-11,-6,-1
-33,12,14,-1,15,28,6,0
35,-4,-17,-2,-56,-29,-6,4
-26,-22,-6,2,-31,15,-4,1
0,10,-9,-16,16,7,4,3
-7,8,22,22,39,9,-1,-16
-30,-8,-18,-29,-36,-19,-9,-10
36,4,5,18,38,8,0,9
59,18,-8,-85,-36,5,-3,23
-13,-16,-10,17,0,-7,-4,16
-128,-16,-11,14,-28,-12,-4,-54
30,-8,0,18,14,3,2,-35
12,-10,-10,8,9,-28,2,7
34,5,1,-7,5,48,10,18
17,2,-3,5,-10,-12,-3,10
10,14,50,20,29,7,3,11
