Channel_1,Channel_2,Channel_3,Channel_4,Channel_5,Channel_6,Channel_7,Channel_8
-3,0,8,12,4,33,5,12
7,-4,-8,127,-2,-28,-10,-19
-56,-3,-9,-128,-31,-29,-16,-20
-39,-6,30,121,-8,-20,-10,-8
-5,-1,2,-20,-13,-21,-9,-11
-5,-14,-12,-19,-25,-105,-25,-6
57,-9,-11,113,64,127,46,42
-3,22,32,-29,-25,-28,-20,-1
-33,5,-37,-21,-2,8,-4,-40
16,-24,-46,44,-21,-123,-24,-14
3,-8,4,-128,0,123,13,0
24,3,43,126,5,-23,0,4
17,-12,29,-127,5,18,2,-1
-9,-13,-53,14,-11,-5,-8,0
9,-10,6,2,-37,-14,-4,7
-3,-12,-1,84,43,-40,-31,-2
9,7,11,-8,-55,-5,24,16
7,22,20,27,30,-56,7,10
29,15,20,6,14,85,28,27
47,-4,14,-17,16,35,-7,-3
-59,-15,7,-41,-4,-24,-9,-17
-9,-28,-53,65,-1,-3,-4,-10
-2,7,-10,-91,-39,-115,-26,-8
0,6,26,24,35,99,12,-7
-5,-7,-7,21,-3,12,4,21
-15,-2,-25,-24,-44,-63,-1,6
5,-7,-4,83,17,20,29,11
-38,1,18,-89,-3,-3,-14,-15
15,-9,8,97,-37,-25,-20,-11
26,15,23,15,-13,-5,3,-1
-16,-6,-13,-55,-6,20,14,-6
-8,11,9,69,-36,-26,-10,-6
31,5,-14,-31,-7,0,-9,4
7,-14,-4,44,14,-20,-4,3
-2,-11,8,-41,-43,-52,-13,5
-20,-6,10,-33,7,31,2,1
5,11,6,-128,-17,-29,14,9
-42,-12,-20,101,18,-33,-23,-11
-22,12,14,-29,-30,-25,-29,-18
22,21,-14,-42,-17,-25,-5,2
-1,-21,-7,8,-3,-6,-1,4
-4,-5,-2,84,8,2,-4,-6
19,-8,-12,-109,-4,-5,-9,0
-12,-6,0,-28,9,-5,4,5
6,-7,-9,10,-29,-27,30,5
14,-4,27,19,-16,11,1,12
8,4,-4,34,-15,-32,6,7
42,4,2,21,17,42,3,30
-7,-3,-10,17,7,-11,-12,3
-7,0,3,-128,-8,7,17,-17
49,-23,-3,58,-6,-15,-7,-13
0,16,53,68,23,-32,-20,-4
20,13,8,26,-1,-58,5,6
-18,-25,-47,-128,-128,-113,-47,-18
-5,-10,3,24,16,103,23,5
27,19,4,-30,61,-46,5,13
68,11,16,17,-19,-55,-1,16
-48,-8,-14,0,-17,-36,-7,-28
-2,-18,-11,-14,-22,-25,-4,-12
-42,-23,8,41,17,-19,-6,-15
-14,24,-13,39,10,34,5,3
17,21,21,7,-1,10,-14,1
-50,-42,-90,36,-9,-8,2,-9
-50,-9,-2,-128,2,3,-2,-6
2,-5,-6,-3,8,-31,-13,2
33,8,29,7,-21,113,18,14
-49,3,0,-22,12,-1,-6,-27
-8,-8,-27,0,16,20,3,-15
7,7,2,-4,-14,-58,-12,-2
18,-2,12,-18,-27,-85,-23,6
17,-9,-2,110,41,65,30,14
-38,5,36,-14,45,127,25,12
-38,-21,-35,28,-12,-59,-26,-26
35,16,25,0,-16,-41,-13,-1
4,-8,-60,-18,-25,-26,-7,1
50,-2,3,-6,-1,-3,13,32
-43,15,26,-35,5,-6,-16,-24
-11,-11,-31,6,13,3,-3,-7
15,-19,-16,40,10,49,11,-4
-48,3,6,-128,-29,-5,8,5
22,-6,-5,55,3,-117,-32,-10
24,10,12,-35,-4,127,15,6
16,-8,23,21,15,-20,-9,-20
16,4,-21,-21,-8,-36,-5,7
53,-2,-4,-58,-11,-12,13,15
17,6,27,97,19,63,19,11
-81,-11,-50,-8,5,-14,-7,-10
-6,-2,22,-48,-18,-12,-4,-1
11,4,12,37,20,-11,-10,3
6,1,7,13,-32,-15,-11,1
-9,-7,-13,-18,-42,-128,-34,-2
53,12,42,127,98,127,50,37
17,3,-10,-128,36,-13,23,3
-128,-10,-42,-86,-10,-42,-26,-41
-38,-40,-61,21,-29,-50,-24,-24
20,-8,-7,23,-12,-11,-10,0
-5,10,-1,-76,-28,-19,-4,10
-13,3,9,127,21,0,3,16
-9,-2,11,-9,-7,0,-12,-9
8,-13,-6,-24,-14,-8,7,7
-13,-5,-10,7,-3,21,-3,2
10,4,-9,-7,5,-17,-6,7
-31,4,28,-7,13,22,2,-7
6,-1,-5,87,1,32,11,-4
-1,0,-5,-28,5,7,-9,-2
-8,18,59,57,2,-11,-3,1
43,-21,-67,-128,-4,-109,-38,5
20,18,-34,-10,42,127,62,25
4,25,90,45,1,23,4,-6
-19,-53,-108,-46,-34,-7,5,-20
-35,-9,18,50,4,3,-8,-1
-30,-8,2,-6,-26,-50,-22,-12
42,13,2,34,32,5,1,-3
-16,8,5,57,-50,-93,-23,-2
6,-6,-6,-111,-10,-5,8,4
17,1,-7,-32,1,22,14,10
36,11,30,65,-5,-31,11,6
-43,16,37,-128,-27,-43,-24,-3
-6,-4,14,104,-5,13,-10,-12
-80,-35,-97,-128,-5,2,2,-6
22,-20,-9,82,0,-12,-8,13
-1,25,86,84,-7,-9,-11,-11
23,2,-77,-84,-36,14,-13,-19
3,-12,3,-14,96,83,40,22
10,4,-15,-16,6,19,11,8
-40,1,16,-24,0,20,-8,-35
-61,-26,-20,-26,-28,-22,-7,-8
-5,7,-6,-3,29,-64,-17,13
55,1,-3,-18,3,79,25,13
3,6,34,89,0,26,8,5
3,-1,6,-61,-4,-10,-15,-6
11,12,13,67,12,-26,-4,0
6,-5,-26,-49,-3,-4,-2,-2
-4,-13,-19,14,-7,9,-7,2
14,0,3,-73,-8,-20,-13,5
-49,11,2,68,-9,-31,0,-7
50,5,50,-23,-5,4,7,-5
-5,-15,-52,-36,3,28,8,-6
47,-1,-9,-19,-7,-8,1,14
13,10,6,-64,-20,-35,-2,-7
-95,8,24,-128,-4,-74,-16,-25
-17,-4,-11,86,46,45,-2,-7
27,-23,-9,-20,-55,59,-10,-5
-47,-16,12,-40,-11,-33,-1,-22
17,5,-1,-22,1,-38,7,7
16,1,3,4,6,0,-6,7
5,1,5,115,3,-23,-1,-1
4,6,12,-57,-11,-6,-8,-1
6,3,-8,-32,-4,-17,-11,1
7,-21,-10,8,-2,-56,3,17
-32,5,40,108,32,127,32,1
16,24,3,-48,5,-20,-8,-9
-35,-22,-51,-24,11,33,-13,-40
0,-18,-19,-23,-4,-7,-2,-5
5,0,12,34,-10,-7,3,5
14,0,-8,-30,-6,-7,-5,4
-5,6,-5,54,4,-3,-5,4
-29,-6,4,-15,2,1,0,-3
-1,2,5,82,7,-33,-3,3
-1,-12,8,-39,-15,28,8,13
16,1,10,63,3,36,25,12
21,18,-13,31,11,-79,-8,3
19,15,33,55,30,97,10,-30
-39,2,34,14,-36,-8,-7,0
-22,-10,-5,-14,20,-12,2,3
-13,-21,-57,-70,-28,-37,-24,-19
25,12,38,-72,-17,-58,-9,-4
8,-13,-15,16,-10,14,-17,-2
-13,-10,5,127,91,127,69,3
28,21,-5,-32,-16,-19,28,26
-29,10,5,15,-20,-46,-20,1
4,-30,-27,24,-29,-83,-23,-12
16,-1,0,-128,12,100,16,-25
-27,1,36,-33,25,16,4,-7
5,-7,-4,39,-3,-16,-4,-12
39,10,-9,38,-15,-13,8,31
-10,8,9,-17,-17,-4,-1,0
6,11,32,4,7,-5,-15,-16
38,-16,-7,-1,-24,-23,-5,6
-36,-3,-10,-8,18,27,-5,-12
1,2,-2,27,-28,-101,-13,-6
-7,12,13,127,-38,78,13,2
0,3,-7,-70,31,6,11,3
32,1,3,-7,13,-60,5,-3
-32,-8,2,-56,-14,-1,-20,-9
-7,-7,-3,-8,-33,-38,-13,12
0,-21,-46,-29,-35,-100,-21,10
54,25,43,127,53,104,45,13
-33,6,-14,-128,-15,-18,-12,-25
5,-32,-27,-16,-26,-29,-35,-29
26,-10,-29,4,4,-70,-13,5
17,3,-14,55,-30,-26,-8,11
27,16,11,-120,93,127,52,28
-79,6,23,14,-34,-29,7,-15
-37,-26,-10,6,-6,10,-5,-29
22,-8,-3,32,-11,-23,-6,-1
13,-1,45,-58,-16,-25,-2,6
46,6,-73,78,-9,-123,-29,11
17,14,-5,-40,62,127,50,13
-61,-7,19,41,7,21,-4,-10
-2,-14,-31,-93,-40,-38,-8,-3
22,0,-1,-66,-19,-66,-33,-17
-17,18,18,-45,-12,62,23,-6
9,-10,10,22,6,-9,-10,-11
8,1,-4,-16,-11,-31,-2,13
-5,1,-6,40,-35,-37,-8,2
20,-9,-25,-92,-8,-15,0,1
19,8,29,127,46,19,14,31
-60,-2,17,-81,-16,-14,-13,-19
-13,-7,13,-20,6,-9,-25,-37
29,-19,-63,-15,-29,-7,-1,-7
-16,1,41,94,-19,-12,6,6
6,2,1,-83,-64,-75,-14,12
23,3,-44,-5,38,-28,3,16
-22,5,5,12,15,127,18,0
9,-5,2,22,29,-9,-2,6
-39,13,57,-3,-1,-14,-10,-4
12,2,9,29,-27,-33,-17,-12
22,-28,-26,4,-43,-77,-15,7
-17,18,23,19,37,36,5,-5
-41,17,16,-23,8,18,-2,-26
7,-12,16,35,-13,-13,-10,-7
-3,-5,-28,88,-4,-7,-6,12
8,5,50,-4,-28,-85,-11,-3
-29,1,-11,40,78,127,35,19
19,5,-10,51,-15,15,-2,-3
8,-12,-2,-53,-30,-2,-7,-6
-50,4,17,10,1,-12,-4,-1
22,1,18,8,-7,-10,-5,2
55,8,5,65,-25,-68,-26,6
-57,5,-19,-69,22,15,13,0
10,-8,-5,-43,-30,-37,-17,-7
15,-4,24,58,-28,-76,-10,-12
-15,-22,-54,-128,3,14,4,12
-14,-1,20,-23,21,57,23,4
24,-9,6,17,-43,-21,-9,-11
17,16,9,-5,11,-9,-1,1
21,4,-8,-16,-1,-12,-2,4
37,0,6,-5,-12,-16,-13,-8
-16,-3,-19,13,1,4,9,2
-51,-1,16,14,-1,7,0,8
-32,-2,-20,-65,-1,-55,-16,-14
30,1,44,-21,-11,13,-11,7
-12,3,-7,49,26,89,25,-1
70,-2,-55,-26,6,-7,10,-15
-97,-16,-20,-32,-4,9,-6,-13
1,-6,18,48,-14,-11,-3,2
7,4,77,-7,-5,-22,-6,6
26,6,-34,25,2,-13,-4,8
-20,0,2,70,15,-33,-7,-2
-4,-11,-1,72,-16,17,-3,6
33,-6,-33,93,-13,47,21,2
-24,14,31,-128,21,-10,-17,-8
6,16,51,-61,0,1,3,-12
1,-32,-57,28,-13,-42,-17,-8
-27,-10,-11,-17,-54,-32,-9,12
8,1,22,100,12,-9,24,11
93,17,7,-128,-12,-14,-14,16
-43,11,-8,-2,19,31,10,11
-17,-19,-15,36,11,45,0,-11
-10,-10,-46,23,1,-73,-22,-13
-89,-23,46,-24,-9,46,-10,-28
-11,-10,-40,30,31,85,3,-12
26,-5,-17,-19,33,-25,11,12
38,16,17,-8,-31,69,31,20
24,7,13,0,-10,-45,-16,5
-41,-8,1,58,-5,27,-5,-11
30,-7,-10,-8,19,-5,-9,2
42,17,-1,-8,-7,-5,13,12
-37,-11,-8,1,-21,-8,1,6
9,-2,32,74,-2,-73,-13,12
-15,14,-13,-128,18,127,29,-15
2,-4,31,-128,44,20,-26,-45
-39,-12,-32,127,5,-35,-8,-6
37,2,-21,3,-75,-88,-12,14
-26,-9,-14,-128,-16,-9,13,-3
10,-7,16,0,51,127,24,6
8,7,39,44,-16,-11,-7,-3
-67,-21,-46,-45,-14,-39,-13,-12
1,3,-2,66,1,-23,11,8
7,2,5,25,11,2,-15,-3
2,-9,6,-38,-12,-20,-6,-7
-1,-5,-5,-46,-47,-37,-3,2
11,19,37,46,29,-23,-6,15
6,10,-4,-72,-11,45,-15,-3
7,-22,-39,-80,33,61,36,-4
50,-1,9,0,-17,112,12,22
-26,2,-16,38,35,-85,-20,3
-23,5,10,-128,-12,43,-3,-19
-21,-13,-2,9,-13,-7,-13,-20
-52,-11,-24,-74,-11,-4,-3,6
-30,-7,-9,27,11,-45,2,2
23,17,72,14,-6,46,10,4
38,17,-12,-10,33,23,7,7
-68,-26,-91,-76,-21,-8,-10,-7
-4,-8,26,64,-30,-128,-28,-6
19,5,-13,-37,66,127,40,4
-26,-9,1,24,2,8,5,8
13,7,11,-33,-4,-10,-6,5
23,2,18,-56,-18,-91,-25,-16
-32,-14,-15,-79,-34,39,11,4
-14,-7,5,85,13,19,7,0
22,12,3,-128,7,10,0,4
27,4,-35,-128,7,47,5,-5
-29,-4,-13,127,24,-6,-11,-7
30,-5,-8,26,33,49,-11,15
4,13,-5,-25,-30,-34,13,6
-21,-2,57,58,-18,-59,-23,-28
4,-21,-36,4,5,48,22,15
13,-8,-11,127,7,-19,-9,15
-46,-2,1,-128,-52,-26,-12,-26
15,5,-16,-32,31,-15,-10,-11
-4,-7,33,13,-47,-18,-7,-11
-2,-6,-7,3,-1,18,3,6
-13,2,3,17,-6,-48,-14,-11
-10,8,49,59,16,13,-6,2
6,-5,-15,-22,-14,-22,13,15
-31,-13,-40,-72,36,84,21,-2
18,17,28,82,-6,-4,9,-7
8,6,26,-21,-21,-15,-13,-11
11,-19,-17,66,-4,-35,-27,-10
2,-9,-34,-42,-52,-48,-9,8
16,12,28,35,102,45,19,19
2,-5,-35,-37,3,16,18,0
-45,-15,-11,-11,-46,32,12,-4
-5,7,22,28,26,9,-14,10
28,18,25,-7,-10,-37,-11,-8
-60,-4,-14,-40,22,98,28,-23
-45,-13,-15,-24,-2,-18,4,-9
-5,5,44,58,-6,-13,-20,6
40,1,-41,-128,2,-18,-18,-3
-14,-14,-31,8,-6,2,8,-3
24,5,-1,10,-14,-38,2,4
32,10,32,-15,-26,3,4,8
-59,-1,18,110,36,-50,0,10
19,6,2,80,-52,-5,-4,-4
-18,5,-5,127,3,6,7,-22
-21,-10,6,-106,-4,-30,-14,-32
-25,-16,-23,-6,26,1,-2,0
34,2,-10,2,-21,-19,1,18
14,8,18,10,-2,-26,-9,-5
-108,0,2,-23,-15,-20,-9,-22
8,-19,-10,-49,-9,-7,-6,4
-38,-13,-43,47,-54,-51,-17,0
4,-3,14,51,-13,-43,-12,-12
14,1,-13,-75,52,58,25,8
21,0,-4,31,33,60,16,6
-1,0,-24,47,-2,22,-3,-10
-20,-6,-25,-128,-43,-29,-9,-9
12,-2,-8,45,-24,-57,-14,7
29,5,17,18,-22,-30,-14,3
10,-1,13,49,35,-20,4,-4
4,-10,-45,-93,-13,17,-16,-20
-128,-31,-10,75,-8,-38,8,-15
-8,16,-21,71,-34,-58,-18,-2
5,24,60,22,-2,76,5,-5
29,2,-16,9,23,-14,9,3
38,-21,-40,-92,-26,-53,-13,22
0,8,14,10,5,14,22,23
-7,-7,11,68,-15,16,1,-26
-17,-8,-9,16,-15,-15,-12,-16
-3,-13,-13,-14,-26,-46,-15,-2
2,7,5,13,-23,-44,-19,-8
3,-2,0,-36,20,43,8,-3
23,9,2,-101,0,24,-2,10
-20,11,21,26,-16,-28,-1,2
-1,1,37,127,18,6,1,-4
2,-13,-1,-4,15,7,2,3
-3,-2,-6,-41,15,-29,-14,-1
1,1,2,127,32,75,43,11
85,-3,28,-24,0,57,-1,12
-83,15,-1,15,-1,23,-6,-10
-31,-16,-47,20,14,-37,-8,-13
-38,0,34,-50,-37,-33,-10,-32
28,-5,19,25,1,68,1,-26
38,1,17,-35,-2,-9,3,19
0,7,10,12,8,-56,-15,1
28,-14,-21,-56,-9,1,2,0
-28,-1,-10,-30,45,65,38,12
17,36,53,32,21,12,-4,15
45,-10,-62,-6,-11,-42,-7,1
-54,-10,80,10,14,45,3,-7
-76,-20,-128,-72,-23,20,-19,-11
-6,-4,3,-17,-1,-1,-11,-11
13,8,24,55,-4,-26,-1,0
41,1,20,-23,13,-40,6,24
13,1,-12,-25,-53,57,18,3
-21,3,19,29,-9,-25,-15,-17
8,-4,-20,-17,6,9,-1,2
5,6,-3,-60,-1,-13,-7,-8
47,1,33,127,4,-21,-2,10
-53,-4,37,-29,-58,-63,-24,-4
-35,-4,-30,-8,34,11,-13,-28
-6,-13,20,46,35,100,14,-4
-6,-2,-27,-128,-29,-42,2,10
11,-3,-23,60,2,-6,2,-4
73,0,-1,-14,4,-23,0,22
7,4,-1,-15,-41,-69,-18,0
-55,-6,17,127,41,66,7,-46
-2,11,2,107,19,-13,-29,-2
4,17,33,-95,-93,-8,6,12
64,-16,-37,20,26,8,27,14
14,24,-9,31,13,-54,3,16
-43,-18,52,-76,26,93,7,-13
-11,-14,-60,-32,-22,4,-6,-9
9,-4,-18,-10,1,-26,-1,-13
18,-2,-9,-22,-17,-10,-18,2
9,-1,1,-6,1,-77,-7,8
14,3,5,27,61,127,5,4
-5,3,-1,17,12,7,8,-12
15,-11,-11,-37,-5,-8,-4,-11
14,9,22,11,-5,-8,-7,12
-10,18,28,-58,-16,-7,-7,-10
-36,-13,-21,88,1,-7,1,-7
12,-13,-31,-128,-26,-28,-4,7
-7,3,65,127,23,12,-5,-2
-19,-12,-68,-59,-42,-58,15,2
14,9,29,6,79,48,15,32
12,10,-23,-128,-43,-2,1,5
-59,-21,-27,11,11,59,5,-23
2,5,7,6,11,-38,-8,-13
11,27,32,-26,-14,-24,-7,-3
14,-1,22,-1,-10,-16,-6,-2
5,1,4,6,2,-15,-8,4
6,-10,-19,14,-25,-1,16,4
4,-6,17,80,24,-40,-18,6
22,-3,-22,-128,-36,57,5,3
91,4,14,95,-9,6,31,55
-85,-17,-71,0,9,-5,8,-28
-61,-10,-14,2,28,5,-16,-38
-3,-21,-8,-14,-6,-5,-18,-25
18,2,-17,-30,-53,-74,-15,11
33,11,0,39,43,46,13,16
9,-4,-55,-128,-32,6,-5,-3
-89,1,17,3,4,-24,-10,1
18,-9,68,5,-30,5,-4,-21
23,5,3,33,39,27,-6,-5
41,-2,6,-18,6,-18,4,7
-26,-1,-11,21,-13,5,4,4
3,0,-13,7,-25,-16,4,1
9,-1,-6,-1,8,16,3,1
4,6,4,-3,16,17,0,0
3,2,7,25,6,-12,-9,0
-2,-4,-4,64,-44,-102,-21,-10
-5,-4,3,-87,22,-107,-42,-2
60,-1,-17,96,76,127,101,45
36,12,30,-54,13,-31,4,13
-64,17,36,46,-3,-49,-5,-23
18,-21,9,-77,-27,-47,-35,-48
-53,-32,-115,-62,-28,-35,-15,-23
14,-3,1,54,-7,-11,-15,6
34,9,36,-10,-10,4,-3,14
-47,0,-2,11,7,5,-5,-15
-2,-8,-15,-103,-15,17,12,0
5,-7,-11,18,-4,0,-1,6
9,13,40,72,1,-10,5,9
1,0,-24,-103,-44,-44,-11,0
-6,-16,-37,127,32,7,-18,-2
9,3,18,32,44,127,65,21
-6,0,25,3,8,-21,-1,-5
7,35,3,-32,-24,-21,-13,-10
19,12,73,-7,-10,-32,-23,-14
21,-26,-71,-4,-11,-41,1,15
86,1,-37,-10,38,6,-17,14
-107,3,3,50,30,112,16,-14
-48,-23,-14,-22,-16,-33,-7,-20
-8,0,-2,-12,-12,65,-5,-19
-19,-4,3,11,14,-11,-3,7
23,3,9,-54,15,-26,4,7
32,4,-2,53,-10,33,19,11
18,4,6,26,-16,-5,-16,6
3,-2,-6,-59,40,44,-5,-1
7,-1,-17,-62,-30,-23,-15,4
-8,-5,5,77,12,-74,-3,-8
-4,9,15,-11,-20,102,14,6
27,-5,-21,25,20,17,15,3
-32,-13,-13,15,18,32,9,-4
-18,-23,-42,-4,2,-46,-10,-11
20,4,12,-4,-42,5,-7,-5
-2,16,27,23,28,-4,-17,-6
7,-1,24,30,-24,-33,-8,0
-20,-6,35,-55,-14,-16,-4,6
-8,-2,-54,-58,-4,15,5,13
28,-5,39,127,42,-1,1,-20
-50,3,9,-128,5,-2,-1,0
46,8,-5,56,-2,23,9,9
-22,-4,-28,0,-2,-20,2,-2
20,0,9,-28,11,-23,0,2
-30,-4,-3,34,-14,25,-1,-4
-32,-9,5,8,17,0,-3,-17
40,6,4,6,-37,-63,-19,11
-37,-1,-5,-23,39,127,54,12
67,-6,-13,-25,-9,-10,-5,13
16,27,101,12,17,8,7,6
-18,3,-83,0,-5,-16,-7,-18
11,-25,-30,43,-12,-21,-12,-18
-44,-7,3,-57,-2,-12,-25,-13
17,4,13,3,9,-33,-6,12
0,0,5,1,-54,-39,-11,2
6,0,-8,15,9,26,-2,-2
5,7,35,100,25,-21,16,6
9,0,57,-9,37,127,47,14
-22,9,33,-63,-48,-37,-9,4
13,2,-105,69,2,-31,-26,-15
-125,-32,-3,-26,-50,-90,-35,-33
23,-8,8,-9,6,-55,-23,-5
9,4,21,-17,55,92,39,29
-1,16,11,32,-5,60,3,-2
-60,-7,-31,9,8,-8,-8,-16
5,-5,51,-19,8,11,0,-40
-13,-18,-59,5,0,-23,-12,3
24,-20,-54,-50,-19,-63,-10,13
0,6,27,86,-2,39,0,9
16,16,51,-10,7,-27,-11,-8
-15,10,24,56,13,44,29,-3
6,-1,6,-128,-12,-11,-6,-9
-3,-16,-19,-7,22,-51,-21,-11
-6,-10,-20,-65,-48,22,7,8
20,5,5,127,19,3,1,18
35,18,17,1,19,4,1,18
19,-5,-33,-95,27,127,12,-29
-30,-4,-5,1,-16,-45,-10,0
-20,3,27,4,11,31,3,8
55,-22,-35,-27,-24,-25,-8,3
-106,-16,-8,16,27,2,6,-11
-16,6,-24,-56,9,-6,-5,-13
61,1,28,60,22,50,4,7
-9,-2,-24,-70,3,-3,-16,7
-29,-5,-15,-47,-21,-21,-4,-12
-14,-5,8,48,22,-56,-25,-16
20,4,-1,74,-62,29,16,3
39,20,37,81,12,33,23,21
-5,-1,-20,-83,-66,-37,-11,-9
-18,-4,-1,-17,26,36,0,-11
-1,-9,-14,2,5,-35,-20,-3
23,8,31,36,30,29,7,21
-25,5,9,9,-5,-16,7,13
8,-10,-47,-10,-13,-13,-5,3
31,-19,-48,-17,-16,-43,-2,-25
-41,4,49,78,10,-31,-13,-15
-15,19,17,-61,-37,-95,-11,-18
66,-11,-12,2,-28,102,13,30
-3,-2,-19,99,11,-54,6,-5
-30,-1,7,-103,-29,-60,-12,-3
-73,0,6,-11,-3,20,-21,-26
7,-4,-6,51,-6,-20,-1,-2
16,3,-12,-103,-20,26,15,13
31,11,27,31,0,-58,-17,-6
30,3,60,-50,16,-6,-3,2
18,7,-33,87,43,16,-4,-1
-8,3,12,-48,-9,56,22,17
5,-3,7,-32,-9,-3,-3,6
-22,-13,-42,8,-25,-44,-15,-11
5,1,10,35,-20,-53,2,-13
21,11,14,-30,17,32,15,13
-35,-5,33,127,53,-1,-10,-9
4,-28,-57,-128,-55,64,11,2
19,-4,-6,-79,-17,-30,8,10
-13,7,4,82,18,3,-11,2
-27,12,20,78,-20,-27,-5,-6
40,-1,-13,30,33,-33,-12,10
22,1,-24,-37,24,119,17,9
63,-2,0,-28,-19,4,7,-20
-78,-4,-19,43,-2,-8,-7,-15
-20,0,32,21,-4,-16,5,-4
25,0,28,-27,-2,-23,-16,5
48,4,-18,-10,-27,-19,8,2
33,-2,-4,11,10,-21,-19,6
-44,-14,-58,5,29,109,21,-4
-13,-7,7,70,-7,6,9,4
-18,-10,30,-55,0,-7,-8,-3
11,13,18,82,3,-13,-6,3
20,10,5,-128,-15,-19,-3,10
46,5,-19,8,-30,-41,-6,-1
-13,16,20,82,42,82,21,4
24,-2,17,17,37,-2,8,14
-54,-14,22,-44,-5,77,5,-5
63,-3,-11,108,5,-37,-15,-23
-75,-12,-14,-19,-18,-16,-7,-10
-9,-7,-19,-20,-22,-26,-17,-11
16,1,9,10,-10,-27,-2,10
13,2,1,-12,-12,-8,-13,-13
13,-1,-11,-126,-3,5,-1,3
-6,-1,22,127,19,-38,2,-11
23,-6,-4,54,3,22,5,9
40,6,-3,-13,-9,27,18,17
-38,8,11,-25,14,23,-1,5
-15,-7,-56,57,-4,-37,-7,-21
-2,-6,-10,15,7,43,0,-7
8,13,7,-79,-5,0,7,0
-16,-17,21,64,-37,-44,-6,0
-4,-31,-3,-79,32,-4,-17,-1
59,5,10,-14,-14,-77,5,35
-2,23,-15,77,44,127,27,-9
20,21,17,-27,26,-34,-6,-9
-79,-24,-24,15,-17,19,-3,-30
3,-1,-17,-64,-8,4,5,4
0,2,24,-37,-4,-38,-12,-3
19,0,10,52,-7,-25,-8,4
19,3,-5,10,-28,-99,-24,11
-22,-8,-23,-3,57,127,11,-8
-21,9,17,38,37,56,14,-13
-13,-2,38,-100,-29,-23,-1,-1
-68,-13,-19,12,7,-42,-15,-17
7,-4,-25,-29,-13,48,15,1
16,-7,-51,18,3,-15,-10,1
18,13,10,-68,-7,-2,-8,-1
4,-2,21,127,3,-15,11,-8
-1,-11,-44,62,-7,-2,-18,-2
-6,-5,-23,-109,-9,-35,-21,-3
2,7,-3,-2,-28,-85,-9,0
16,8,69,35,19,127,40,42
15,32,-13,85,48,46,5,-5
-84,-9,-25,-85,-25,-34,-4,-44
14,-20,-6,-14,-13,-11,-19,-15
-50,-17,3,-6,-5,-24,-3,-11
15,-4,3,31,14,10,9,11
12,3,7,25,3,-6,-1,14
10,3,2,-49,-40,-70,-22,2
-1,-6,-10,15,-2,0,10,4
23,-1,11,18,45,120,24,10
36,18,9,-32,-18,-28,-1,2
-13,0,-10,2,-8,-30,-2,-6
-92,-14,-42,-33,11,-2,-15,-11
-20,-2,-9,5,-2,16,-8,-3
0,-13,3,58,-18,-22,-5,-20
15,0,24,-64,4,-47,-9,-13
6,-11,-21,-30,-4,57,12,7
3,-2,-5,-49,-5,-11,-13,2
-6,11,11,42,-12,-13,-6,1
8,7,-2,-22,-18,-59,-9,10
57,4,1,78,82,114,24,22
14,6,-1,-15,-35,0,-5,1
14,-6,3,5,3,0,-2,-22
-107,-37,-51,42,-19,-42,-10,-20
5,1,-9,6,16,13,-1,-2
-1,-4,-8,-128,-29,-20,-7,-4
3,1,6,-26,1,0,4,9
3,4,13,127,11,-63,-17,2
7,1,12,48,61,71,0,8
23,-5,0,-13,-30,21,14,16
41,-5,-9,-66,9,14,2,-23
-56,8,-44,16,36,69,23,1
27,2,49,3,21,58,16,-14
-45,-19,-11,-20,-15,-29,-22,-6
-24,-5,7,-28,-4,-19,-10,-12
19,-6,-7,-21,-22,-16,-2,3
17,7,8,-24,-7,-4,-2,10
6,-1,5,52,-16,-44,-16,-6
-4,0,7,76,-14,-47,-19,-6
-20,5,-11,5,36,108,33,17
56,15,14,-15,-16,-8,7,4
-42,-14,18,0,-10,-38,-21,-20
-4,-20,-4,11,-2,-35,-16,-15
20,5,-15,12,5,70,11,13
18,1,-11,-10,27,35,9,-1
-53,-16,-19,24,1,-4,-5,-11
-47,2,25,18,-35,-40,-15,-4
21,5,14,69,16,-16,-8,6
56,4,-28,-48,-8,-13,8,11
-70,-16,41,-107,-4,0,-19,-16
-52,-1,34,7,-17,0,-5,-20
12,-18,-27,44,-9,-7,21,6
37,12,-9,-12,-2,-4,-5,-9
18,0,-22,8,-43,-29,-12,-1
8,-1,-4,-61,64,-22,-11,1
16,3,15,-30,-49,-59,-27,-1
-18,-2,11,4,88,127,64,21
-26,4,-11,40,57,27,11,-7
6,-6,-13,-42,-25,-36,-7,-6
6,2,7,42,-5,-49,-3,5
-12,-1,0,43,-7,-18,-28,-35
13,1,2,-56,-20,-1,-2,3
-11,-9,-6,-3,-7,-13,-1,0
-1,5,-15,3,-33,-20,-10,-1
-9,-8,5,35,21,31,9,6
-3,-2,13,-20,14,0,7,9
26,5,14,72,10,11,5,6
-24,16,-14,34,-12,-2,-4,-4
33,1,86,124,0,-3,7,4
-87,-19,-87,-47,-4,32,8,-30
13,-5,-23,-41,30,73,7,-15
6,-12,3,26,-17,-46,-16,-3
7,3,-6,-36,-17,-4,-1,3
34,5,7,5,0,-27,-4,6
14,1,11,-47,17,-19,5,4
13,6,7,8,41,56,-7,10
-53,-7,-8,-29,0,72,21,1
-1,-2,-13,-16,19,26,6,4
18,4,16,68,3,-1,7,24
-44,-8,-5,-99,-15,-55,-10,-24
32,5,68,-47,-4,62,-6,-7
-13,-1,-78,-13,5,-28,-24,-13
1,-13,-28,47,-37,-1,-10,-20
-10,4,-5,-22,-29,-40,-5,7
34,7,10,-3,39,34,21,10
40,-4,2,-74,-5,-2,4,11
-11,0,30,116,16,-28,-9,-2
-41,20,6,-92,-16,5,8,-3
7,-15,-16,-21,-20,33,-8,-12
10,-14,-9,-16,4,-43,-6,2
10,-4,7,-96,5,18,4,4
22,-1,9,-17,-59,-24,-20,0
14,2,-11,-14,25,-28,-7,-7
-2,4,26,44,45,94,25,4
21,-7,-53,42,-12,-44,1,19
-6,0,4,-7,-26,-49,-8,6
-75,4,26,14,-13,17,-6,-29
-2,-14,-19,-9,53,48,14,-21
16,-3,-16,17,4,1,-12,-16
8,-1,1,-20,-32,-58,-14,0
8,0,12,12,25,58,10,11
-7,3,3,64,9,-15,4,7
38,1,2,-119,-11,-14,-14,21
0,3,2,47,-6,-3,-3,-12
-22,7,11,8,27,-1,1,-13
-26,-1,63,54,14,29,18,2
36,-4,4,-51,-12,-17,0,5
0,-9,-78,24,-4,-13,-8,-9
36,16,14,1,12,18,0,5
17,3,-14,-8,-27,-38,-16,-1
-87,-15,15,27,26,-53,-38,-31
1,-6,-13,-4,-18,66,17,-11
13,-1,-8,-3,34,49,23,8
14,8,34,0,30,-14,2,15
49,17,41,17,0,31,7,12
48,-6,-51,-17,-15,-107,-32,22
-56,-2,-15,-30,-22,68,13,13
3,6,52,48,56,34,28,-14
3,5,-39,-128,-22,-21,-10,-26
-75,-24,-23,15,1,-13,-16,-23
-21,-9,-6,8,-18,-14,-6,-1
8,3,1,0,14,-39,-21,-14
44,22,32,49,41,70,21,21
48,7,45,44,-37,25,7,18
4,-9,-73,-47,10,-32,3,7
-76,-16,-29,-46,-14,17,6,-13
4,1,1,-6,-13,-21,-4,-4
16,9,16,127,29,-7,-12,1
1,6,6,-63,-23,73,2,-1
9,-9,28,-47,-3,-11,-13,0
16,-2,-25,-12,1,-19,-8,-1
-15,1,1,12,-8,3,4,0
-18,-2,7,18,-5,-27,0,-2
15,4,3,28,-18,-80,-27,-9
30,-4,-21,-25,24,103,26,7
15,-4,-8,-49,-11,-39,-8,17
8,5,6,0,51,65,15,-8
-15,-1,13,73,-42,-31,-13,-24
-70,-9,-19,-128,-22,-20,-16,-13
-25,-16,-15,52,4,-41,-10,-5
15,-1,5,27,31,87,3,9
32,7,-15,-31,-36,-124,-18,-4
6,10,8,84,50,127,25,-1
19,15,56,54,-9,-5,-4,33
10,-32,-102,-29,-9,-76,-25,3
0,-6,-5,-28,-15,66,25,-28
-47,-10,32,28,41,6,-22,-25
28,-2,6,-32,-11,-38,14,21
15,10,6,-70,-47,-61,3,21
-34,1,-2,9,9,37,-11,-29
-9,-7,-35,127,-18,-72,-26,-23
2,2,-16,-128,21,21,4,6
38,12,18,34,17,38,-1,5
-31,6,14,-37,-6,-2,16,-2
15,-13,30,-26,-9,-17,1,3
19,-10,-50,1,9,-7,-11,3
-15,-9,17,54,4,-33,-5,0
-78,-6,4,18,-12,-36,-10,-23
-2,-6,-14,-19,20,42,-9,-13
7,2,42,43,1,-47,-1,2
36,-13,-92,-73,-38,78,15,13
10,5,17,23,23,32,-4,7
23,4,-6,-68,21,11,-8,-24
-44,-11,4,110,-8,-31,-9,-4
-36,2,18,-5,4,-59,-11,-16
-56,-18,-3,-31,-5,49,23,-10
26,9,14,88,23,-5,-23,1
9,-3,-9,-9,-48,-25,5,14
17,-8,1,3,8,5,9,9
39,16,17,-128,-9,-11,15,11
-74,-7,57,12,-15,-25,-14,-26
13,7,-40,102,13,-8,-9,13
-46,-27,-53,-44,-23,-28,-19,-25
-13,-17,-24,-43,7,50,-7,-20
24,5,28,7,35,-55,-14,6
10,5,11,-2,-73,-6,5,21
40,6,-1,22,42,26,10,15
33,4,0,12,-6,29,16,14
-51,-6,24,42,6,-41,-14,4
-59,-7,-8,-15,33,0,-10,-38
35,15,46,-2,-6,17,8,3
42,-17,-42,27,8,-25,2,12
-109,-25,-55,-28,-17,-37,-16,-20
-20,-26,-24,-11,-9,37,-3,-15
20,4,-2,42,15,-47,1,7
15,6,36,-26,26,59,2,3
14,19,26,51,-12,2,3,13
22,1,-7,-2,-63,-68,-11,7
-2,-30,-38,15,31,1,-22,-1
-6,2,33,-63,-23,-37,-9,-1
13,8,-81,-75,39,102,24,14
27,2,22,43,10,47,18,2
-30,-10,2,47,-8,-25,-10,-10
-36,-11,-5,10,-9,-18,0,-9
14,-1,18,5,-10,-58,-21,-3
12,14,25,8,25,-35,1,9
-30,21,9,34,5,127,4,-20
26,-23,-71,-128,-17,5,-4,-5
6,-12,9,-18,5,2,-5,15
-17,3,9,91,12,-42,0,0
-6,10,10,-85,-21,-25,-16,-11
8,-5,5,72,-26,-38,-15,-12
18,1,-6,-5,-4,-121,-18,10
32,13,4,61,17,127,36,8
-46,-20,24,-15,63,63,15,3
-24,-4,16,-62,-14,-39,-19,-14
-31,-6,-27,-30,-15,-33,-3,7
11,3,1,94,-10,-26,-5,9
37,3,-7,-91,-10,-46,0,-9
-37,-2,-18,117,-18,6,-37,-26
-3,3,1,-26,-12,-2,12,7
-27,-17,-15,23,71,88,14,-29
17,2,9,17,5,-1,3,1
9,3,4,59,-17,-23,-1,15
-45,-2,-27,-104,-23,-8,-4,7
33,-10,-18,-26,5,-28,-7,1
14,15,20,26,4,58,22,21
-16,14,58,33,-24,-28,-5,-7
-16,-18,-54,50,29,-85,-34,-22
57,-7,17,-115,-85,88,26,18
-17,-13,-2,46,74,-23,-10,2
-50,8,-33,7,-13,67,24,2
45,10,-9,69,11,3,-4,-14
-46,-10,9,-79,-16,-19,-12,3
-43,3,27,21,-8,-21,12,-6
15,-2,7,-31,-12,-4,-19,-27
-5,3,-1,46,1,-7,-8,0
12,-10,4,23,0,13,15,5
27,2,15,41,14,-53,-29,4
-4,-17,-20,-35,0,101,14,0
3,-16,-79,-128,-51,-66,-2,9
24,25,-2,26,40,43,19,15
-24,28,66,24,-19,14,-5,10
32,-8,53,38,-7,15,8,-13
3,-22,-61,48,-58,-74,-37,-20
-16,-12,-27,-72,16,57,34,-5
-66,1,14,-81,33,39,4,-17
10,-3,21,-11,-24,-39,-29,-25
12,-10,-18,46,-13,-23,-10,-13
32,6,11,-50,-45,-31,-7,19
-15,22,14,56,18,-86,2,2
37,-8,-12,38,-21,15,19,7
-65,-14,-24,13,21,3,8,-13
24,7,-20,-128,3,1,-11,-2
-2,-7,-6,-95,-33,-29,-11,-3
6,-29,-43,40,-1,-29,-2,-2
5,16,7,3,21,-2,-3,3
17,22,53,-7,-32,-16,-6,11
44,0,-3,28,2,17,-6,4
13,-10,-29,-29,-5,48,25,1
-17,8,8,3,8,-5,-2,-10
-1,-10,7,-44,-43,-54,-17,-5
-7,4,-2,10,44,65,4,3
11,5,22,120,86,49,4,-7
11,-9,-43,-128,-59,46,7,-13
10,4,36,112,2,-41,-24,-1
32,3,-42,-6,-6,20,16,19
-12,-4,-7,-7,-1,7,5,-13
-46,-25,-24,-29,-4,-7,-2,-13
4,4,20,-32,-35,-46,-13,5
-14,0,-10,44,19,-42,-26,-7
22,8,-5,-16,25,121,48,11
11,3,35,0,-11,27,25,9
16,-8,-83,40,49,63,0,7
18,11,40,-40,-1,-21,0,-1
-68,0,13,-1,-10,-25,-8,-9
27,-3,9,28,-7,-20,-8,-7
-25,3,55,71,-10,-22,3,11
-3,-12,-66,-18,-42,-31,-19,-14
21,-5,-20,-15,18,13,7,11
-15,1,26,7,-37,-59,-18,-5
61,1,1,49,43,90,12,20
-14,-6,7,5,33,79,30,-11
-48,-8,8,-2,10,7,-2,-30
-14,-2,11,16,-14,-25,-7,-3
20,2,-4,-20,-13,-23,-7,7
17,2,-7,0,2,-16,2,8
12,0,5,-42,-11,-15,3,9
23,2,-3,-22,-35,-48,-7,12
0,-4,11,47,12,1,-19,-9
-17,16,3,19,31,6,15,2
1,26,-4,-41,-35,-38,-8,-7
20,-40,30,-69,-15,32,-5,5
-6,-26,-41,-21,8,8,-6,-20
4,6,-5,-19,0,-17,-6,-10
-12,1,11,36,-13,-7,-1,-1
12,2,-2,20,3,-11,-8,15
32,6,4,57,-8,-86,-12,10
-29,-1,-4,-120,2,115,30,11
3,-4,-13,3,1,5,-7,-28
-2,0,18,45,9,-17,-14,-28
-16,-3,-6,-128,-32,1,-10,-4
20,-11,-16,-21,-26,-12,1,6
18,-3,10,-16,17,-6,3,18
-38,2,4,58,-16,7,14,-4
10,2,21,-26,-12,-24,-7,3
-32,-4,-8,11,31,5,-23,-21
-17,-17,-81,-13,-24,-5,1,-14
8,-8,34,9,-7,-8,0,7
12,9,22,61,3,-50,-1,10
3,7,21,-8,6,80,5,5
8,7,26,70,35,-30,-13,0
5,-11,-21,-91,-10,14,4,-1
-10,-1,-23,-2,-18,0,7,4
-3,-3,5,46,2,2,12,5
-16,1,6,-19,2,-10,-17,5
42,-1,-6,-5,-7,-32,-11,-1
-14,3,37,93,-7,-1,6,-15
-38,0,2,-116,-30,-26,-11,-26
-12,-2,-23,-30,22,33,0,-12
7,-13,-2,56,10,4,-4,10
89,-1,4,-5,-18,-37,-2,39
-128,-7,9,111,5,-14,11,-22
-3,-7,2,-29,26,55,-15,-20
-2,2,-22,-93,11,-16,-16,-18
3,-8,-2,96,17,31,7,-2
14,3,1,-15,-26,-5,14,11
-10,-5,28,-23,-41,-43,-7,1
3,-1,-1,30,-4,-81,-19,-5
3,-5,-11,1,18,95,27,8
9,7,16,16,1,11,-7,4
7,-9,-25,5,22,-6,-8,2
-2,3,21,-31,-29,-36,-5,0
9,20,2,-28,-6,-9,7,2
-12,-8,14,102,11,-13,-34,-8
31,-11,-6,-25,-23,-27,20,4
-41,-6,2,20,9,9,18,9
-32,-2,-26,-18,13,53,10,-29
27,1,42,-13,-1,15,-19,-5
99,9,26,-23,-29,15,-7,18
-34,-1,-62,-2,-12,-49,-4,-11
-64,-6,16,17,5,5,1,-24
-49,-3,2,-80,11,-16,-12,-10
19,-10,-10,48,15,-1,6,10
20,-13,-24,50,-19,-12,-8,1
14,3,-2,-25,-24,-21,-6,2
13,10,9,64,28,-18,4,19
-7,3,59,127,2,27,2,-3
-1,-10,-26,-128,-31,-15,-11,-15
19,-4,-48,110,-52,-68,-19,2
30,-2,-14,-16,27,-32,4,13
-37,2,9,-41,2,51,11,8
-36,17,42,-31,-14,20,21,-12
14,-17,-47,-7,-3,-42,-17,-23
18,7,14,-1,-38,-23,-20,9
10,1,-5,1,12,-27,-8,-5
-30,-5,-17,-17,-20,-1,-4,-11
9,1,19,26,-16,-47,-17,4
29,-5,-28,-18,49,50,21,19
-5,0,-1,-22,29,-13,-3,-10
-6,-2,14,88,-46,-13,-12,-4
-4,2,22,-64,-14,-17,4,-1
2,-6,-21,-57,-11,2,4,6
-5,-10,-46,-105,23,6,11,4
41,-5,-10,-44,-21,-12,-19,5
-35,14,12,18,-4,17,-11,-12
-31,1,57,26,62,120,17,-12
-12,-24,-31,25,23,21,1,-1
7,-6,-28,-31,-35,-15,-2,4
-4,5,11,-37,-10,-22,-8,-2
1,13,-8,54,-10,-66,-20,-18
68,11,36,41,-1,66,1,6
-40,-12,-66,-94,7,60,15,-6
-18,-1,25,28,7,-8,-6,-14
11,7,32,-22,-6,-20,-2,18
2,3,6,-19,-28,-56,-8,-8
9,-3,-27,29,35,40,2,10
-45,-1,25,19,-13,-6,3,-2
53,-4,-18,-93,-31,-22,-10,-5
-24,1,-32,-7,10,-18,-18,-9
8,4,13,108,18,57,12,6
-2,-12,-16,-3,-11,-1,-5,-1
14,8,13,8,11,30,1,5
20,8,6,-19,-28,-53,4,9
12,-15,22,21,-36,2,-6,-1
6,-2,-43,-22,20,-90,-8,-10
-65,10,6,46,14,70,0,-15
-3,-7,20,-49,-26,-25,3,0
14,-1,-26,107,-1,-33,-34,-3
16,-5,-7,-84,-3,39,-4,-5
-16,6,20,35,6,-30,7,13
10,-1,-9,77,13,-20,6,-1
-24,-3,-8,-42,-8,13,-1,-32
-21,-11,-16,16,-13,-26,-14,1
-9,-19,-38,-128,-35,3,0,-7
-5,-9,6,58,-13,-57,-6,-17
78,16,30,34,-16,-7,-6,9
-3,-1,-48,7,-5,42,4,25
-41,11,31,-54,0,-55,-11,-6
-35,-12,39,-42,-22,-93,-17,-12
-6,-21,-113,2,-20,114,30,-5
14,6,9,27,33,14,9,5
16,2,37,-49,-17,-27,-10,9
17,-3,-3,-9,7,-78,-12,13
-11,-9,-29,-2,-23,89,6,-7
29,5,28,127,10,-11,-7,5
-11,6,33,-128,-18,-27,11,1
3,15,9,82,40,-16,-3,-4
-38,-6,24,-42,-29,32,10,-13
30,3,28,65,-3,-22,-12,-1
-8,-6,-99,-37,-8,3,4,7
33,-23,-11,-33,-28,-44,5,11
33,-16,2,76,-40,-31,-28,3
-48,23,8,-119,65,26,-7,-17
-52,-11,39,85,7,31,-3,-29
14,-15,-50,-79,21,122,34,11
40,-3,-21,-71,-17,-28,-4,19
-15,4,35,6,-8,-20,5,-1
13,-5,3,5,1,-7,0,-3
5,12,15,17,2,-13,-8,0
14,-3,-11,14,-3,2,5,14
-27,-15,-36,-2,-23,-28,-4,4
-7,19,36,25,-12,-103,-19,-13
23,12,51,34,59,127,20,-1
18,-2,0,-56,-1,62,11,11
-18,-6,-80,-21,-6,-21,-2,-13
-48,-17,-31,16,-25,-38,-7,6
-5,8,26,92,-1,-24,-23,-13
20,-4,12,-99,22,41,27,0
-21,-6,-8,-50,-8,18,22,9
18,2,-4,56,10,-17,-12,5
21,10,37,-95,-56,-51,-20,-8
-4,-8,-56,14,-9,-11,-7,-23
20,1,28,-100,-13,19,6,15
-28,-7,9,-26,-6,-10,3,1
15,-11,-25,60,27,-9,12,0
2,4,-15,-43,-25,-33,-21,1
-12,-2,-14,-26,-80,-76,-23,0
-17,10,20,-18,65,81,28,22
18,20,39,1,15,33,11,-5
-34,-19,-63,-17,-20,-17,-14,-35
3,-10,-22,-8,-21,-9,-6,-5
7,10,24,30,-1,-3,4,4
15,-13,-27,-82,-12,-9,-10,13
32,5,12,-128,-26,-27,-6,-1
-12,4,-9,121,8,-63,-10,-6
-9,-7,-9,8,-12,61,-2,2
2,2,3,-22,-7,-43,-10,-5
8,-2,-3,-2,16,34,7,12
4,-1,-13,62,24,49,38,18
-19,2,-4,-76,-12,-83,-18,7
41,11,45,46,31,127,38,8
-25,2,6,-10,-18,1,-11,-44
-34,-14,-12,-23,-11,-66,-34,-15
-27,-2,8,10,-14,-30,4,5
49,5,-21,-55,-9,-22,1,8
17,-3,-7,65,15,-2,-2,-6
-113,-9,-10,-128,-26,-28,-10,-30
1,-5,-3,64,14,53,30,7
30,3,-10,-97,-1,25,7,13
17,17,48,27,3,-14,-10,1
4,-6,50,44,-19,-60,-6,0
-10,-14,-42,-26,6,31,-6,-8
-6,-12,-54,1,22,4,-7,-3
-3,-1,-3,3,-47,19,-4,-7
30,7,30,-17,17,40,15,22
-23,-2,-5,3,-2,-60,-16,-12
12,-2,5,-21,24,29,14,5
-1,0,-5,21,-26,-50,-4,-3
25,2,3,22,-7,1,-3,-1
-41,1,-12,19,16,20,3,-1
18,-4,44,100,-17,-11,1,9
22,-9,-6,-128,-17,-20,-11,-5
8,0,-28,4,-13,-97,-34,-14
-4,3,-4,-16,37,127,26,2
-6,1,29,46,43,-6,7,-6
-46,6,45,-21,-44,-128,-24,-5
14,-15,-19,36,7,127,33,4
-24,-1,-35,-65,32,-41,-15,-14
-32,-2,-10,89,2,-15,9,-13
24,-12,-4,0,-23,-57,-13,-1
3,3,7,-25,-1,-24,-17,-2
5,-9,-3,-4,-29,-11,-1,0
9,3,23,34,0,-8,-7,10
10,-3,-5,-79,-20,11,5,11
-5,2,-5,89,25,12,-7,-19
16,13,7,5,-2,-13,-2,3
28,10,21,-42,-9,-3,0,15
-56,-13,-8,29,5,5,-5,-17
24,-10,-26,-26,-6,-43,-9,-6
9,8,15,38,-21,60,12,12
10,5,31,40,7,-20,-3,-13
-48,-11,-17,-25,0,-7,-16,-10
-40,-10,-26,-38,-3,-12,2,-4
11,0,18,21,2,-2,3,-1
8,-15,-57,6,3,-23,6,7
4,3,15,-1,-9,-36,-16,-4
3,5,-8,4,56,127,9,-5
-43,15,40,-86,4,28,2,-11
1,-3,29,119,-6,-19,-1,-14
6,2,-24,-63,19,9,4,3
3,-14,-23,-40,-37,1,0,-3
0,-10,31,7,-11,-42,-23,3
-13,-9,11,-81,-14,32,-10,-5
49,14,-4,49,35,72,38,13
-16,2,-5,-27,2,1,11,10
-31,-6,-24,-50,-13,-11,3,-8
-3,-8,23,42,-24,-62,-42,-13
7,2,11,48,32,29,19,5
17,-2,-41,-104,-5,-18,13,12
69,8,8,-3,-2,58,18,0
-36,-7,-9,-128,-17,-5,-16,-14
-12,5,19,118,38,-4,-3,2
44,-10,54,12,-7,-24,-15,-4
-45,-16,-47,-37,25,-1,-1,-12
-27,-5,-37,-30,-43,25,-6,-11
-43,-2,5,-10,-10,-28,5,1
19,-4,20,-2,15,12,-13,-1
16,11,-4,45,16,-20,5,3
15,18,-11,25,-12,22,26,10
-3,-3,14,-46,-34,-38,-7,-5
-3,1,41,27,8,-33,-19,-3
18,-1,-65,9,26,69,17,11
15,-4,-11,-27,-5,-11,-16,-8
25,2,5,-12,2,8,0,-5
-13,-6,-5,6,-6,15,3,-3
-87,-19,0,0,1,-33,-12,-7
35,1,-5,-38,-4,10,2,0
-21,3,-11,65,2,-37,7,2
24,7,14,20,31,45,5,-5
30,-2,50,-12,-29,-23,-22,22
33,-4,-60,-7,-57,-67,-4,-1
-40,-1,-17,-1,112,111,35,-4
-104,-29,-5,-8,-36,1,-1,-30
52,13,14,35,1,-22,-7,7
15,-5,2,-75,-17,-20,-11,0
7,3,-5,57,-12,-4,-4,2
4,3,11,-7,-15,-30,-12,1
1,6,28,-6,-36,-32,-3,3
-5,-8,-36,0,59,58,14,2
-5,3,4,5,-23,3,12,5
-6,-8,18,27,-9,-37,-4,1
8,-12,-27,-28,3,-29,-28,7
-58,-7,-32,21,25,120,46,-4
18,12,17,-12,-11,-45,-7,-7
5,17,36,-28,-19,-4,-11,0
-8,-10,3,-128,-32,-54,-19,-10
-8,-9,-59,110,35,-13,6,2
-11,-7,9,96,51,62,7,-2
-7,3,-1,-75,-24,-24,-10,3
50,-5,-9,4,4,14,11,13
-11,-9,-3,44,11,-23,-12,-16
-66,-8,23,-39,-29,14,3,-7
38,0,-38,-10,-38,-57,-20,21
-39,-12,-10,17,34,-8,-9,-24
-14,-1,10,46,11,10,-6,-44
7,-4,-2,15,35,84,4,0
0,8,11,56,3,-30,-3,6
54,14,26,-1,-31,-8,1,10
-1,2,5,3,18,-28,-6,5
-20,-2,-2,3,-35,-10,-6,-9
1,-7,-6,54,9,19,14,9
12,-2,-23,-39,-25,-39,-8,14
4,4,15,45,56,40,-2,-16
25,2,14,-34,2,31,-2,-12
-15,-1,27,-13,-26,-9,-14,-13
7,18,20,-40,-13,0,-1,0
-11,-8,5,-34,-10,-32,-14,-10
4,-25,-125,-21,37,71,9,12
-26,3,-8,-6,1,-10,-6,-6
-22,-5,19,5,2,-7,9,-10
-43,-12,-8,-4,3,16,2,-8
20,6,12,-15,-20,-34,6,13
115,16,18,3,-27,-82,-16,11
-11,-1,14,93,37,93,16,-8
-80,-11,-11,-128,43,106,40,-8
16,3,-21,42,-9,-16,-12,-7
21,4,16,13,16,-2,-3,5
17,0,-10,-18,-18,-15,5,3
4,-3,9,-10,-12,-15,-9,-4
2,-4,-1,28,1,-11,-9,-2
-2,3,-14,14,2,-4,-2,3
2,-3,7,-35,2,-26,-4,-6
0,1,11,127,19,69,22,3
2,5,-6,-105,-26,-11,-5,8
-7,6,-7,46,-16,-14,3,-2
-11,-13,-17,36,32,2,-14,-8
-2,-7,-13,5,-4,12,-5,-11
1,11,18,-32,-1,3,3,2
13,-10,-9,41,-2,3,3,14
1,-5,20,0,-16,-17,-11,-17
3,-7,6,6,-6,-36,-8,22
-4,0,-21,-28,-4,6,-3,-10
-17,0,9,35,5,-15,-7,-43
-10,0,-4,-16,-21,-7,-1,-17
8,5,-1,-18,28,14,7,18
11,-9,42,31,-25,-18,-9,9
-38,-29,-86,4,6,-18,3,-6
1,5,-13,-13,-22,-21,-2,5
22,-1,16,-12,-33,-19,-12,-1
-54,1,21,24,0,-86,-9,-6
0,-6,3,-57,29,127,43,13
18,0,-17,23,33,-9,3,10
18,8,4,6,1,-16,6,-2
-15,-1,2,-13,-3,-12,-10,-17
41,17,55,85,4,-10,-14,2
-69,-10,-15,-19,-49,-37,-10,-5
1,-13,5,-76,4,-46,-1,8
-9,-9,-47,23,16,93,18,8
39,-8,-2,-61,-2,-28,-6,-5
-42,1,-13,-49,-22,42,11,-18
1,5,10,0,-15,-25,0,1
22,-3,-14,34,14,-12,3,5
-27,-5,-2,-7,-20,-74,-16,0
14,9,73,22,18,109,9,6
13,2,-12,-20,20,-15,11,19
-15,-16,-25,-56,-16,-14,-22,-14
-52,-8,-7,36,-2,-5,-1,-13
9,0,-9,-61,-27,7,-8,0
-8,-3,2,-5,-16,-44,-13,2
14,4,7,-1,-8,-43,-4,2
5,1,39,72,50,-2,-10,-3
26,6,-24,-6,43,127,66,30
10,10,3,-35,-4,-5,3,8
-17,1,-10,6,-27,-38,-21,-19
-19,-14,-46,-77,-9,-58,-5,-3
-31,-4,11,2,4,15,4,0
19,-10,-11,-24,-34,-16,-24,-15
-52,-11,-13,-7,-12,-17,-5,-12
42,-3,6,18,-45,-101,-35,-14
16,8,-19,23,40,124,20,20
-30,6,47,-12,63,30,50,0
14,-9,8,-48,-24,-36,-7,-26
-45,1,-73,-59,-44,-28,-23,-3
-4,0,22,-62,-23,-37,-24,-5
9,-12,-13,92,-11,-22,-6,15
-4,-2,34,127,8,-44,-18,2
15,4,-20,-56,40,96,21,-27
31,7,-23,-57,-15,11,11,-8
-18,-14,-11,28,3,0,5,-1
-2,-9,-23,-40,-5,0,3,8
31,7,11,96,-37,-85,-27,10
2,9,76,101,5,27,5,1
14,-5,-86,-128,23,115,25,3
-9,-6,-5,-2,-14,-32,-19,-11
-24,4,9,0,-4,-29,-10,-4
26,4,21,-4,0,-64,-18,6
46,-1,15,32,24,12,-12,15
-26,3,-4,25,-31,54,22,16
-31,3,7,-52,-13,-14,4,-28
33,-4,5,-6,-2,-19,-14,-16
-8,-7,-12,-53,-13,-17,-8,-7
-13,-8,-6,79,-66,-35,2,6
-15,5,9,-69,27,-47,-5,9
44,6,1,97,81,118,37,20
-33,-11,-42,-115,-14,-64,-12,-26
2,8,22,-17,-36,-35,-16,-18
1,0,8,-117,-40,-58,-9,-6
3,-17,-51,-2,-19,43,-3,10
3,-2,7,-7,15,-26,-1,-6
-1,-1,-12,-10,8,28,-13,-9
-8,6,27,30,-4,27,10,8
-64,-11,45,25,2,-4,-6,-16
37,-2,-59,-20,-28,-23,-12,-1
47,-5,-12,17,12,21,17,29
-15,13,13,37,3,8,1,25
15,17,65,-11,-11,-31,-17,-27
-44,-9,6,17,-2,6,1,-25
16,-20,-10,-23,-43,-57,-6,-6
-24,-2,-4,-80,15,-13,-15,0
19,-2,-7,116,27,33,8,14
5,5,-13,13,28,22,3,-2
-10,11,5,-93,-46,-18,1,8
13,-28,-32,7,-44,-39,-5,-7
36,11,0,21,34,22,-14,-4
-38,-5,33,-13,-25,-30,-14,-26
-50,-15,-26,-2,9,-17,-8,-10
-38,-24,-58,4,-27,45,-8,-14
33,-9,-47,82,6,-26,-4,-6
40,10,7,-50,18,-3,-10,7
-62,-11,12,75,10,6,-2,-17
-12,-11,-14,-51,-11,15,9,-1
11,5,21,15,13,-13,-9,8
-22,-1,19,74,-20,8,-14,-13
43,9,21,-68,7,34,9,-3
-16,-1,-21,12,-10,-26,-14,-14
5,-3,4,-17,-18,-7,-22,-14
-29,2,-29,0,27,-78,-11,15
-2,-15,-49,-16,58,127,51,10
-17,-13,21,21,-7,-32,0,-17
12,8,7,-39,-28,-23,-10,0
-22,-9,-19,127,6,-69,-27,4
-4,-1,34,102,-50,-37,11,7
-45,-3,-45,-102,-34,-20,13,-7
-10,-8,15,-128,-56,-28,-26,-26
-19,-27,-65,72,41,53,7,-16
8,6,-8,-28,22,-20,-20,-6
-23,6,33,103,-4,2,-3,11
10,-4,-12,-61,-42,-23,-1,6
42,-8,-12,-9,-16,-46,-22,4
19,8,-4,4,63,33,23,18
46,6,29,54,15,34,6,5
-65,15,0,-63,-29,-24,-20,-35
-79,-16,-41,26,-32,-48,-22,-25
7,5,28,-41,18,4,5,5
0,4,4,-5,-3,13,5,3
23,-4,6,21,-18,-14,2,1
23,13,45,5,9,-48,3,13
-45,-33,-128,-3,-18,18,-9,-8
-13,-10,-7,-61,-26,-36,-14,-14
17,2,17,17,53,78,19,-4
21,1,31,-12,8,-9,14,16
-45,1,18,49,-28,-28,-11,-16
11,1,-19,-9,75,10,-11,-21
63,0,1,-72,-54,43,14,7
-48,3,1,-32,-10,-18,-10,-1
-31,-4,36,81,-1,-17,-6,-6
-4,-8,-13,-53,-23,-78,-9,-3
-1,-4,-16,124,-31,-62,-24,-2
46,-10,-41,-128,70,127,31,8
-21,0,33,-17,-17,-45,0,-9
-10,5,-52,47,23,61,25,4
41,-6,1,-24,82,-22,-2,-2
-107,-15,21,-70,-83,49,8,-6
-52,-2,1,-33,16,-15,-2,-8
-5,-4,5,-3,0,33,-4,-2
29,6,6,9,3,-9,3,17
4,11,21,71,0,-16,8,-2
3,-1,6,-28,-40,-24,-5,-16
0,-12,-11,-55,27,25,2,4
19,-13,-68,-26,0,17,17,16
-25,11,6,11,-1,-9,-2,-6
-6,-14,3,-11,-29,-27,-23,-14
-2,-6,-7,65,24,-3,-8,-2
29,16,38,-70,16,51,32,15
41,-8,2,24,5,11,19,13
-11,-10,-26,-10,-44,-12,-6,-8
-88,-22,26,-9,12,1,-17,-8
-16,6,-6,4,25,25,24,8
-7,2,-4,19,-20,-30,-11,-6
11,-14,19,2,-12,-6,-26,-25
13,15,12,42,8,56,15,-4
27,20,28,-91,0,-6,9,10
3,-28,-30,-10,-10,-18,-9,7
20,-2,-31,-24,-8,-59,-20,-1
34,2,10,29,-29,-10,-6,3
-72,7,35,116,36,21,13,4
33,-18,-5,-128,-2,41,-2,-4
-43,-8,-30,-71,-27,-13,2,-9
7,0,-29,-28,-9,-30,-15,-13
11,4,7,8,23,29,-3,-5
17,6,4,8,-4,-10,-3,9
3,1,61,9,3,-19,-5,-3
-1,-6,-52,-3,7,2,-2,0
-6,-8,1,6,-3,-7,-3,-6
-2,7,-28,-17,-39,-102,-9,3
14,6,32,68,98,127,27,26
21,0,38,31,-18,28,3,-4
6,-15,-35,-77,-18,-6,-23,-5
90,6,18,27,-5,-7,-10,7
46,-5,5,-36,-30,-40,-30,-4
-9,13,6,-10,-32,-78,-17,-12
-75,0,30,-15,40,116,23,6
19,-11,-15,10,21,-18,11,9
-3,1,30,40,33,55,12,4
1,-6,-55,-22,-49,-31,0,11
42,-2,10,-70,54,109,19,1
-4,-2,-7,-29,-24,-25,-15,-37
-16,-1,4,21,10,-31,-27,-17
3,2,-2,6,18,15,7,10
14,15,-8,74,-21,-58,-10,4
35,1,-33,-96,-10,114,11,10
-12,-18,9,40,3,-45,1,-11
8,-4,6,-93,-2,53,-2,3
24,6,9,55,9,2,-6,-11
1,27,12,7,40,6,14,10
1,-7,52,19,1,-11,1,10
-29,-15,-99,21,-26,21,-13,-14
3,11,2,-13,35,-23,4,3
74,4,39,-17,-39,22,18,13
-77,6,13,5,3,4,-18,0
-6,-1,1,38,-5,-34,11,2
-16,-9,-14,-64,29,-11,-18,-1
49,16,10,40,-19,50,41,19
-31,-7,-43,-70,11,14,-5,8
22,-12,-22,-27,39,-51,-14,-22
13,-8,-15,4,-13,91,-7,-21
21,10,65,-11,-38,-53,0,15
-10,3,-1,-11,-6,-10,13,-3
-73,-10,-3,66,14,-13,-3,-9
-1,2,10,-90,-20,-6,-13,10
10,1,12,14,3,-11,-1,5
5,-8,-28,-2,-6,-13,-9,1
48,15,-9,35,-5,17,8,4
-24,-4,-1,-18,-30,-29,0,0
-74,-25,-30,-128,14,-8,-10,-20
-9,2,35,-7,-18,-12,-1,-16
24,16,19,18,30,-17,0,7
-4,-3,9,-79,-47,57,9,5
38,0,-52,-21,-25,-22,-8,14
12,-17,-34,49,-10,-51,-4,10
-69,-15,9,-103,67,105,22,-8
-12,-1,6,-36,-3,-19,-20,-27
-1,4,-36,-4,-15,-30,11,-5
-2,-3,2,-2,-28,-60,-38,-3
-4,9,36,13,-34,-20,-1,6
3,-10,-26,-4,36,58,19,11
80,-3,3,24,-9,-32,-9,7
-87,-2,-12,5,-9,-25,0,-11
-3,6,24,64,33,-16,-5,10
-8,1,-2,-51,-53,-92,-24,-9
-43,-17,-8,9,18,72,19,-15
2,-12,-25,-5,-15,-9,1,-12
-12,-12,-43,-62,15,-35,-13,-10
9,-1,3,55,6,17,8,-2
42,30,44,-9,22,5,-3,20
-6,-12,-25,-104,-20,-29,-32,-8
5,2,6,60,-6,17,2,-1
1,-9,-19,-53,-13,-19,-14,3
-1,-2,-12,-56,-33,-24,2,4
-5,-9,1,34,0,0,7,-6
-19,3,13,98,25,16,18,9
82,9,16,-56,-30,-31,-3,17
-128,2,9,-98,-7,-22,-22,-42
22,-3,10,92,11,-21,-26,-21
23,-17,-25,-94,66,127,37,0
-13,-21,-42,-14,-3,-18,18,5
16,6,-5,32,-5,-44,-20,2
5,5,26,-72,-25,-24,-11,5
-48,-5,5,20,6,-32,-10,-19
2,-2,-10,-11,-27,-17,-13,-11
13,-6,-20,34,-17,-28,-8,4
-29,-1,-10,-17,-9,-17,-3,2
-31,-3,-8,4,-17,28,9,-14
2,1,37,-35,15,17,6,4
0,-11,-27,7,-7,0,-6,1
4,7,-20,4,23,13,12,5
6,-17,-28,-39,5,-35,-10,-17
-5,-1,20,41,-13,-20,-15,-2
-3,18,33,20,12,127,18,16
52,1,-13,-47,45,10,19,15
66,12,-30,-48,-20,9,22,34
-128,-19,-8,-24,-29,-45,-30,-75
-1,-8,10,89,-7,-44,-32,-27
17,-32,-63,-91,9,-29,-26,-3
26,0,-29,9,-21,28,14,23
38,1,3,-79,22,-21,11,15
-40,0,5,36,-11,-86,-15,-27
-66,-6,0,12,49,112,33,-7
-18,5,7,-101,17,95,-5,5
34,13,20,-17,4,10,6,2
16,4,17,11,-22,17,0,-10
-23,-16,-26,36,4,-29,-7,-6
66,-9,-9,81,-8,-11,-13,23
-76,0,-9,-37,4,11,-3,-10
-8,-7,3,-9,-11,-65,3,-17
33,14,16,14,25,73,30,26
73,16,24,2,-3,26,-5,9
-10,8,-12,14,6,-19,6,0
-2,-26,-50,4,-19,-15,-4,-9
-58,-14,-7,-37,-9,-5,-27,-6
-36,-9,-2,24,3,-33,4,-13
43,21,46,8,9,18,13,4
-20,-1,14,11,-26,-97,-17,-7
42,-9,-48,30,69,127,8,-3
32,7,4,7,31,120,15,10
1,-15,9,-81,-12,16,16,2
8,-5,2,-62,-25,-44,0,-4
-8,-11,-13,14,-31,-33,-16,-9
-59,-2,-1,127,8,-21,1,1
21,7,27,-48,-30,-22,2,4
6,0,23,20,-20,-15,-20,-6
-5,-21,-28,3,9,-27,0,-8
6,8,-14,-124,-25,-8,3,6
29,-6,5,38,35,-14,-2,7
-42,-3,-14,56,-18,-25,-30,-25
49,3,-23,-41,14,66,3,1
-6,-10,23,-60,-13,4,9,12
-16,4,16,-6,22,18,6,-8
48,-4,-23,32,-11,-60,-13,1
-7,-9,-41,-56,5,101,39,10
-50,-11,-4,54,-2,-17,-8,-11
6,-21,-6,36,14,11,-7,-9
12,1,8,27,-4,-23,-2,-9
8,19,13,4,-18,-33,0,-6
15,13,54,0,-11,-20,-10,6
12,-10,-96,38,23,14,6,9
1,-4,-49,-82,-9,2,-6,5
12,-26,-19,-27,-9,-6,3,-3
-28,-4,69,2,39,22,-10,-8
2,-2,-68,-47,-33,3,-1,-3
36,-4,5,15,15,-14,-1,4
26,11,20,30,-17,-16,4,-2
-7,-7,-11,10,-35,-19,-11,0
-23,-15,10,-73,-11,-30,-10,-1
-35,-16,-86,-2,50,80,7,-13
-39,-9,-2,42,-11,75,13,14
29,20,21,-41,-11,-40,-20,11
19,5,8,109,42,1,34,-9
40,5,-2,-9,-18,-20,-10,-4
-41,-2,2,-27,-37,-46,-24,-23
-12,-16,-1,-26,-2,-19,10,-16
-10,-11,-4,63,48,65,9,9
-6,22,28,17,-1,42,1,19
34,-9,-32,-21,11,-59,8,-2
30,4,42,14,-21,-2,-5,-4
-11,-3,-8,37,-16,-67,-15,-5
-37,-8,-38,-14,-13,-38,-19,-8
3,-13,29,-17,-6,89,25,6
-8,-2,-17,-65,19,-8,1,9
11,-15,-51,-39,-58,-53,-4,-4
-76,-7,17,65,-3,-2,-9,-5
35,18,11,-20,11,6,-20,-13
4,5,31,-3,-2,-31,-8,-6
20,-12,-29,25,-3,-26,-7,-4
-59,-6,-17,38,26,12,15,10
49,22,40,-16,-35,-55,-17,2
-101,-8,-21,38,13,-31,-5,-39
-9,-7,-28,-70,30,79,26,-2
10,-29,-23,12,-34,-9,-11,0
9,-7,-11,-51,-19,-8,-5,4
13,10,31,113,11,-53,-10,7
22,3,-9,-81,-27,22,2,9
30,-1,-12,-29,4,-48,-14,6
-22,17,15,-21,-26,76,18,-1
-128,-38,-95,18,36,-39,-20,-23
21,-22,-59,-16,6,45,5,8
65,22,27,-20,1,-43,9,28
30,27,29,6,-10,2,-10,-32
-128,-16,3,-4,-38,0,-16,-30
46,-6,3,28,35,20,3,-9
-5,-6,58,20,-5,-12,-7,1
9,-1,-31,5,-21,-43,-18,6
-6,17,-28,-51,-9,-7,-7,7
-59,-42,-15,-2,21,78,20,-1
8,-5,4,-18,-14,-21,3,6
-5,11,16,17,-1,-14,-13,3
19,3,-24,-78,4,2,7,2
-2,11,32,85,-19,-42,-8,12
2,22,4,-1,39,42,23,8
-24,-67,-56,-109,-36,-1,-28,-36
-17,-5,-7,17,57,91,1,-13
18,15,16,-10,-10,23,19,28
21,-1,-30,-40,-28,-96,-26,-4
-17,0,3,119,45,108,23,2
-87,9,17,-28,7,-1,-6,-15
9,6,52,-9,-21,-25,-11,-17
14,-34,-48,-37,-37,-39,-3,-4
22,-15,-90,-37,21,-83,-11,3
14,-34,-48,-37,-37,-39,-3,-4
22,-15,-90,-37,21,-83,-11,3
-77,-10,-9,-2,7,127,21,0
5,4,23,-9,9,-17,-7,-19
24,7,18,7,-6,-4,0,17
42,2,-2,-32,-26,-33,-2,4
-10,7,22,22,-1,-37,-17,-10
-12,1,12,-32,-11,26,3,13
