Channel_1,Channel_2,Channel_3,Channel_4,Channel_5,Channel_6,Channel_7,Channel_8
2,2,-4,-49,-65,2,-4,-4
-12,-16,-43,-67,-107,40,-2,-22
-12,-13,-20,-3,20,-45,-19,-11
23,33,25,20,25,7,26,21
3,13,39,127,106,15,6,-5
10,20,44,25,51,14,6,10
-30,-45,-84,-128,-128,-51,-32,-23
9,-1,2,127,-4,-2,11,26
-14,-5,-8,78,54,17,-7,-27
5,12,46,127,88,4,4,1
-4,-3,-4,-55,45,-22,-14,-12
-3,-2,7,58,-16,29,2,-3
-2,-8,5,25,16,29,11,4
-12,-3,12,-5,-13,-20,5,-6
4,9,16,7,-14,-13,13,3
4,-2,-16,-46,-11,-13,2,13
12,17,39,127,49,5,5,3
-30,-25,-26,-51,-75,-27,-58,-52
-11,-8,-10,50,32,15,0,-16
-10,-21,-36,-128,-128,-54,-17,-2
9,2,-16,-14,50,18,2,5
3,9,15,55,36,10,11,8
-9,-14,-27,-90,-25,-55,-17,-12
1,1,-23,-44,-23,-36,-11,0
-4,2,21,52,30,93,23,-1
3,-1,-5,-21,-19,-22,2,10
-5,-17,-31,-128,-39,-32,-27,-7
-4,-3,0,42,41,32,-7,-5
-8,-18,-21,33,-37,-14,0,-5
-12,-20,-31,-91,-73,-47,-13,-5
2,-1,7,58,73,-3,-4,4
15,15,28,43,20,14,20,25
17,19,36,48,22,30,21,15
-1,1,-16,21,9,6,-8,-14
-18,-17,-22,-13,-4,-17,-23,-25
-1,0,9,-8,9,-51,-4,6
-6,-4,5,42,15,38,37,15
-3,4,18,9,-18,1,-17,-14
4,4,-27,106,28,2,17,6
-2,-5,-13,-74,-71,-25,-10,-9
3,18,32,94,127,-19,6,-2
-23,-36,-73,-128,-128,3,-22,-18
-2,-9,-3,76,21,-29,-5,3
0,8,12,69,50,13,4,5
8,3,21,-4,-16,-18,-1,8
0,-2,-1,28,9,18,11,-1
-16,-11,-15,-11,-17,-24,-20,-20
-7,-6,-2,3,11,-13,-7,-11
6,8,28,127,127,32,16,6
13,15,6,-40,-128,-6,15,21
-5,-12,-21,54,-37,-18,-7,-9
-14,-19,-34,-128,-96,-29,-18,-5
-5,-7,-7,-38,23,17,-5,-4
6,1,2,49,38,-57,-6,7
15,22,22,37,4,81,16,18
-6,3,7,17,-66,57,20,-2
0,1,-1,12,-49,-12,7,3
2,-4,-2,-14,40,-32,0,-2
2,3,5,-14,14,-37,-1,1
-28,-25,-34,-51,-42,54,-37,-43
-13,-14,-17,-29,-28,-20,-12,-19
-2,2,-1,-10,-1,7,1,1
18,12,14,-2,-7,-6,7,29
12,9,-6,25,46,32,21,11
-16,-12,-2,-30,28,-38,-17,-22
-7,-9,-21,-76,-85,27,-6,-10
-5,-10,-10,30,6,16,0,0
-3,-7,-25,6,-29,-20,-3,2
-8,-12,-10,-40,-2,2,-12,-8
5,5,2,1,36,25,7,5
8,12,35,127,19,-25,11,8
3,5,3,-18,47,-42,0,3
-6,-6,5,58,-3,53,-4,-2
-10,-13,-29,-128,-58,8,-11,-11
-7,-4,-1,-103,-16,-1,-8,-11
0,3,7,2,-72,-8,5,3
-3,-6,-6,-16,-40,-10,-8,-2
-6,-4,0,67,127,-6,-2,-5
2,8,14,76,127,9,3,6
6,2,-3,-22,-128,3,7,7
-11,-6,4,47,83,9,5,-6
-1,1,7,-8,7,6,11,13
18,20,15,44,36,-4,0,-4
-5,-7,1,5,-45,27,-13,-11
-16,-12,-22,-8,-48,-47,-21,-19
-6,6,10,95,127,35,16,2
-12,-15,-26,-116,-128,-15,-4,2
1,-10,-16,-31,127,3,-10,-5
7,8,11,-5,-42,5,5,7
-5,-2,-17,54,26,18,19,14
19,19,31,103,32,19,22,35
17,22,25,84,127,12,2,-1
-29,-25,-22,-17,-111,-6,-35,-50
-16,-17,-12,-128,-118,-38,-22,-12
-8,-13,-26,-64,-31,-39,-11,-3
4,4,5,10,30,54,18,13
0,3,11,127,107,23,13,3
3,6,16,-8,2,-46,1,6
6,4,-12,-91,-128,58,19,9
-2,-7,8,20,3,-97,-30,-8
-6,-5,-7,15,31,127,18,-6
10,9,7,119,46,-11,20,15
-10,-10,-15,-81,-97,-53,-17,-6
-5,-8,-8,5,37,-67,-23,-7
-3,-1,1,18,41,41,0,-5
3,3,9,14,12,40,11,1
8,7,-4,6,-9,-16,8,3
5,1,11,0,28,-6,3,0
0,2,2,-4,-57,-7,-4,-1
-2,3,6,50,-2,2,-7,-11
-6,-4,-8,-128,45,-5,-1,-10
-3,-12,-11,10,-91,-20,5,12
14,22,-8,-30,53,27,14,12
-26,-40,-70,-113,-48,-46,-62,-46
22,23,20,122,31,25,15,17
-4,-14,-40,-128,-128,-28,-5,-2
-2,3,16,6,29,7,8,0
6,9,18,78,67,11,9,5
14,14,28,43,41,-6,11,27
-6,-7,-20,-64,-27,-24,-8,-1
-4,9,13,60,-15,18,10,-9
-22,-37,-68,-128,-96,-12,-36,-29
-10,-12,-3,14,80,-33,-20,-11
5,4,4,-2,23,-34,-2,9
2,6,17,15,-10,2,11,6
3,7,9,36,-23,-43,-1,11
-1,-2,-5,-25,19,103,14,3
-1,1,7,9,-31,77,12,-7
-5,-5,0,23,-13,-71,-8,-3
3,-6,-10,-45,-19,-22,-10,-4
-4,3,20,38,1,18,6,3
3,0,-18,32,18,-17,-9,-5
22,15,2,-7,20,2,11,21
5,3,4,5,-2,-9,-12,-6
-24,-25,-26,-67,-27,-16,-22,-22
-3,1,2,44,14,12,5,-2
4,5,8,-52,20,-7,3,11
2,-8,-10,23,-59,-22,-9,1
-7,3,24,107,98,-22,-6,-15
-3,1,-18,-128,-128,103,23,-1
-4,-9,-4,59,81,-26,-10,-2
7,5,-8,112,13,17,5,0
-6,-4,15,-17,94,6,-7,-4
2,-7,-10,50,-44,11,6,10
6,7,1,-31,11,-23,5,8
6,14,32,103,24,-1,11,2
-23,-41,-72,-128,-122,-16,-30,-19
-6,-8,2,10,38,2,-11,-9
6,5,2,72,26,-2,1,5
0,-2,0,38,14,-33,-13,-4
2,6,6,21,71,57,13,4
3,-2,6,-18,-97,63,33,8
-3,-7,1,-21,2,-20,-9,-2
-2,5,-9,-16,7,-16,-2,-7
0,4,5,13,19,2,-1,-5
-6,-16,-6,-39,-46,-22,-15,-6
5,2,1,47,23,4,3,12
-1,5,4,-45,8,-15,0,-3
-6,-2,-20,-7,-33,4,1,-8
-8,-6,-7,29,16,0,-18,-14
5,1,-6,-11,-11,-6,7,11
3,0,2,-64,-16,-57,-14,-9
-9,-6,0,68,99,99,0,-15
-4,-1,-4,-27,-116,-17,-2,-1
-1,2,5,-29,52,-73,-7,1
1,3,1,-14,39,127,24,11
4,4,10,18,33,-20,-5,2
-17,-16,-18,53,-6,-57,-22,-20
-10,-7,-10,-39,-81,-24,-14,-8
-6,-12,-22,-114,-17,-2,-15,-6
14,21,20,127,99,41,37,18
10,12,18,-29,-49,2,8,13
-8,-19,-32,-128,-77,-41,-24,-10
6,4,-2,-4,5,-20,-3,-5
3,4,12,58,35,19,-3,-7
5,6,5,64,42,16,6,7
4,2,5,29,-11,-39,0,5
-6,5,17,109,-7,9,5,-2
-7,-9,-22,-38,-10,-38,-2,4
2,0,9,49,56,-4,13,6
7,8,0,-94,-128,-14,-2,-5
-6,-9,-7,-58,59,-20,-9,-5
-5,-4,-13,44,31,7,-3,-10
-7,-8,-13,-7,0,-64,-21,-13
0,4,0,36,12,25,13,5
3,0,5,-16,3,46,7,4
-4,-1,1,10,15,-14,-2,1
13,16,26,16,-31,-15,4,13
-14,-10,-13,-10,-16,-25,-22,-18
-8,-3,-7,8,37,7,6,-4
8,1,-7,-75,-76,-5,18,7
-8,-8,-24,-25,46,11,-4,-2
3,3,9,12,18,-21,1,5
-6,-5,-3,0,12,-8,-7,-11
-5,-4,24,44,12,-11,-10,-5
12,10,3,46,-5,25,10,0
-5,-8,-20,-45,42,-28,-4,-5
-5,3,-1,-1,-45,53,-11,-4
-8,-7,7,-21,-12,-30,-5,-7
-1,-9,-13,-111,-111,-37,-9,0
12,12,12,34,22,-13,10,17
3,6,12,28,73,-25,-1,9
-16,-13,-22,49,81,127,7,-12
3,-3,-20,-109,-128,-21,6,-1
-15,-23,-31,-85,-13,-40,-29,-21
-14,-13,5,33,84,-19,-3,-7
15,18,32,53,29,-35,-2,7
-6,4,6,49,-7,-19,-12,-13
-11,-8,-5,-56,-2,32,-8,-6
-4,-9,-25,-33,4,14,9,0
1,4,20,47,-27,-23,-2,7
4,2,3,24,58,-7,3,8
-8,1,19,113,2,17,-2,-2
-8,-7,-18,-128,-74,-28,-9,-9
9,7,-19,-59,-59,-14,-2,1
1,3,23,-19,80,-5,-4,-3
3,0,-19,-37,-113,-2,6,4
-4,-3,-7,-34,-26,-16,1,1
-10,-9,10,38,54,-22,-15,-12
2,-4,0,4,7,26,-1,-1
11,10,23,3,14,-63,-14,11
-6,4,22,97,28,90,52,15
2,10,15,83,78,36,-2,-19
-4,-16,-56,-128,-128,-54,-30,-25
-15,-18,-22,-105,-61,-34,-21,-17
-1,3,3,59,91,-1,4,5
6,6,15,56,69,5,3,7
0,3,24,95,53,-52,-17,3
4,2,-6,-49,-39,127,42,11
5,2,5,6,-8,-11,4,7
13,10,3,18,1,22,14,10
-9,-10,-29,-30,15,-8,-19,-25
-9,-8,-9,-23,-39,-25,-13,-15
-9,-9,-5,-31,-78,-10,1,-6
10,3,-15,-7,0,9,3,7
14,15,17,24,88,-32,2,14
-3,0,3,19,2,59,15,3
-6,-10,-24,-34,-19,35,-6,-9
-9,-5,21,-10,-40,-15,-11,-15
-4,-2,14,-25,47,-15,-8,-6
9,8,5,0,-38,-10,19,9
6,7,6,33,23,24,4,5
-13,-12,-24,-67,48,-21,-14,-18
-13,-18,-19,-96,-128,-12,-13,-13
-3,0,3,-44,-19,-16,-4,-4
-10,-3,-1,26,48,-39,-13,-6
6,5,-3,57,64,116,30,14
15,15,14,35,-48,1,8,16
6,6,7,-31,-5,-1,4,11
-1,8,13,23,31,-65,-27,-17
-3,-3,-18,122,14,56,22,-1
-6,-14,-27,-76,-78,-41,-11,-7
2,0,1,-25,43,-28,-8,4
-1,-1,6,73,89,16,-3,-5
-2,-9,-24,-128,-71,-9,-1,1
0,1,12,61,9,-48,1,1
-2,3,14,47,52,88,3,2
8,6,10,-50,-54,-2,13,6
-9,-18,-31,-85,-93,-39,-23,-17
2,-6,-24,40,127,13,-2,-3
-13,-9,-4,-21,-33,4,-5,-4
-9,4,15,-15,-2,-10,-1,-3
11,10,16,73,47,3,5,5
-11,-3,-6,11,-45,-17,-10,-17
-5,-3,-5,-31,6,-15,-4,-5
4,-6,-11,0,0,20,1,1
-3,-2,-6,-18,9,-51,-10,-3
0,-3,2,-35,-1,82,5,2
17,17,23,127,57,6,21,21
1,-4,-7,-94,-83,-31,-11,-2
-16,-23,-49,-128,-65,-42,-19,-11
-15,-22,-31,0,-11,-18,-16,-19
3,4,7,49,24,10,-2,-1
0,3,23,24,28,3,-4,0
-1,4,17,122,43,-28,-6,2
2,1,-11,-63,-1,79,26,5
7,9,20,66,36,-37,-8,11
-10,-17,-20,-74,-27,-54,-30,-14
-11,-14,-31,-128,-95,19,-10,-15
4,1,-6,15,61,-7,-8,-11
8,10,-8,22,-29,5,9,8
3,2,13,32,-10,1,4,4
-1,-5,1,14,-28,-64,-3,6
-4,-7,-5,8,1,34,7,9
-7,1,-8,-24,-14,17,-10,-19
-13,-10,-9,27,2,-24,-23,-36
-4,-5,-19,-58,-55,-14,-10,-5
-10,-11,6,19,-12,-54,-10,1
9,1,-18,17,47,7,14,25
19,18,11,-3,-5,-10,16,11
-10,-4,-5,21,-40,26,-3,-14
-12,-7,-31,0,14,-15,-13,-13
0,3,23,112,53,19,-1,2
6,-8,-7,-88,-128,6,18,19
-4,-8,-32,-92,-41,-74,-22,-8
-19,-17,-16,-64,-9,7,-14,-22
-8,5,16,2,50,100,12,-11
3,-1,7,71,40,-5,7,8
17,20,37,105,32,26,14,18
-4,-9,-17,-88,-4,6,-19,-9
-1,-4,-22,-27,-91,-28,13,-1
2,-1,-8,-70,-26,12,3,4
6,4,19,62,55,-14,7,8
-10,-12,-4,-46,-73,-19,-7,-6
-13,-6,-8,-9,17,-19,-12,-9
-8,-9,-20,-39,-35,-18,-22,-17
6,9,14,127,55,-3,19,10
1,-5,8,-55,-7,6,-6,-2
0,-4,-24,45,51,1,-1,0
-15,-1,0,-65,-84,-7,-1,0
-8,-8,8,41,16,-94,-17,-17
1,-2,-10,-7,-71,125,11,2
3,-4,1,-12,25,-13,0,-2
6,6,8,-42,40,4,-4,2
3,4,4,16,15,10,16,11
4,-1,6,112,3,1,-2,-6
15,18,22,1,20,-33,16,21
-4,-9,-11,-75,-47,1,-4,-2
-10,-7,-15,-54,-20,-20,-17,-13
-2,-4,6,56,36,-13,4,-5
-6,-6,-11,-106,27,33,3,-5
-2,-2,7,81,56,-14,-8,0
3,3,13,84,-46,-10,5,7
-1,5,12,-36,-16,45,13,7
3,7,2,8,-5,-8,-6,-7
-13,-10,-17,-27,7,-65,-25,-21
-5,-8,-13,-70,-54,96,4,-7
3,0,6,87,-14,22,14,0
5,3,-13,-6,118,25,5,16
-3,-6,-1,17,-68,-10,7,4
-4,-2,-2,-56,-50,-28,-4,-3
1,6,-6,45,76,-1,-14,-11
1,-6,-3,-13,1,-5,-6,-2
2,-2,8,83,23,2,1,3
-3,-1,4,-8,8,2,0,-1
-2,-1,-17,3,20,10,5,3
9,1,0,-33,-24,18,-2,15
2,0,-23,-31,-29,-18,2,-8
-16,-14,-17,17,-19,-71,-25,-25
-10,-8,-19,-41,-56,-77,-4,-7
0,1,7,25,25,96,11,5
5,4,12,6,31,62,15,8
3,6,14,99,-2,-26,1,4
1,0,4,-67,36,6,-2,2
4,11,7,66,-46,-18,4,7
-1,11,32,98,117,61,-2,-3
-2,-10,-16,-73,14,-14,14,2
0,-4,-4,6,-53,-59,-17,-4
4,6,17,108,119,15,7,-1
3,5,2,-26,-105,8,4,4
7,-4,-23,-56,-13,-29,6,11
-2,-5,3,2,28,7,-9,-6
-21,-6,-1,-21,-16,-4,-13,-25
5,6,1,89,56,22,7,-2
5,7,16,44,22,-15,6,3
0,1,1,5,-39,13,2,2
0,0,2,-55,-36,7,-2,2
-1,-6,-4,-9,50,-20,-6,-4
-2,-1,5,-2,-21,-3,-4,-4
2,-1,-3,16,-1,-42,-3,1
0,0,-1,5,50,73,9,8
2,8,21,12,9,36,1,8
5,-1,-3,-1,-12,-9,9,-8
-6,-6,-5,-21,-23,-21,1,-5
-6,-2,6,6,17,-31,-10,-11
11,9,19,32,-32,41,12,25
-15,-14,-1,40,127,-11,-21,-23
-17,-15,-2,-128,-128,-42,-31,-34
-5,-11,-26,-28,7,-18,-7,-5
-10,-14,-10,-32,16,-4,-2,-2
7,11,29,47,10,8,10,16
9,11,8,34,24,6,16,12
-4,-2,7,38,-20,-1,-4,-1
-4,0,0,-18,-9,2,1,-3
-9,-10,-17,22,66,11,-4,-4
0,1,-5,-38,-29,-25,1,-2
-1,0,8,-12,-23,-7,-3,2
-3,-7,-13,-6,-28,7,-5,-2
0,-3,-5,-30,6,-56,-9,-2
-2,-4,2,55,-13,68,9,-2
-4,-1,-3,-2,16,-57,-7,-1
5,5,0,-45,-19,-34,0,0
0,0,10,91,108,98,22,3
3,16,39,127,25,31,11,7
-11,-9,-20,-53,-128,-49,-7,-14
-11,-24,-52,-128,-128,-41,-28,-13
-16,-26,-24,-87,32,-28,-27,-15
-2,-4,-6,21,5,8,5,2
-8,0,21,31,17,-12,-8,-12
-4,-2,-1,64,89,-4,-4,-11
3,-3,7,15,-5,25,14,1
-1,1,-1,-34,-24,-33,0,3
8,10,15,75,-8,-17,-4,6
0,-2,6,-26,-14,15,4,0
2,-4,1,-91,-43,-8,4,4
-11,-4,-5,-27,-13,-1,0,-12
0,0,-4,-23,-6,-7,-10,-6
6,4,2,-10,-5,1,-4,7
-3,-2,0,4,15,-9,-5,1
-5,-8,-9,-13,8,-52,-7,1
20,18,-2,62,52,78,32,16
-1,3,8,-10,-31,56,9,-5
-24,-22,-35,-106,-128,-43,-21,-19
-3,1,20,86,99,2,1,-9
-4,-13,-21,81,-50,-20,-8,-3
1,1,-11,-106,-6,-27,5,8
10,18,25,31,36,-14,1,7
-18,-27,-48,-104,-128,-11,-31,-26
-18,-29,-70,-128,-80,-74,-30,-23
2,1,-2,89,87,71,11,4
12,11,13,97,-1,-2,12,14
1,2,9,16,22,35,-2,6
4,7,14,17,0,3,24,11
1,5,25,52,-4,-36,4,7
-4,-8,-8,-12,-23,-2,-1,-4
-8,-5,-10,-21,43,-16,-14,-11
8,10,2,-3,2,17,8,5
-3,-6,-3,-30,-22,-2,-6,-12
-1,-4,-13,6,63,-18,-5,9
-2,-2,-2,-1,-32,-14,3,-3
-2,-1,0,14,-10,-54,-9,-3
-9,-3,0,-16,-8,59,8,-2
-1,-4,-1,-8,-4,16,3,0
3,3,13,8,-14,1,-2,3
-4,-4,-11,21,101,-9,-6,-6
-19,-23,-22,-108,-128,-29,-27,-23
11,13,16,97,36,6,10,13
0,-8,-9,-63,44,0,-7,-1
8,7,6,-33,-35,-28,16,20
-2,1,13,33,38,35,2,0
-20,-14,-28,2,6,-29,-12,-28
-9,-1,5,16,-4,60,10,-14
10,12,13,33,-4,16,18,20
4,-2,-22,8,58,-4,-8,7
-26,-29,-15,-48,-26,-13,-20,-27
-15,-9,-23,-58,-60,-3,-6,-13
9,3,2,-26,14,-2,6,15
5,8,17,30,58,-49,4,13
-6,-6,-11,2,-34,61,13,-5
2,11,21,127,47,8,6,-7
-12,-2,4,-79,-76,-20,-15,-23
-12,-22,-27,-117,-42,-52,-22,-10
2,0,-3,56,56,46,1,3
17,13,18,31,87,50,18,27
3,7,7,68,42,-12,4,-5
-19,-6,-10,-43,-128,-55,-14,-19
-10,-12,-16,-98,-101,5,-8,-16
-3,-10,-9,-14,127,-11,-11,-4
2,-5,2,65,48,30,10,6
-1,0,1,36,-24,-2,-3,-6
10,12,-11,-10,7,3,12,25
5,7,8,44,-23,-6,4,9
6,8,10,-30,-93,-24,0,-5
-2,-7,-37,25,22,-10,4,-7
-15,-20,-18,2,86,34,-8,-11
0,1,4,-6,-3,-11,-9,-6
0,0,8,0,-28,11,1,0
4,4,-10,8,-12,-48,-3,-2
0,3,8,-27,-51,-18,5,1
8,3,12,26,45,-20,3,15
-5,-4,-5,58,-46,54,-6,-4
-18,-21,-23,-75,-83,-40,-17,-18
-2,-4,1,11,69,-3,-7,-8
4,0,-2,-34,25,8,10,6
1,-1,-5,-35,-25,-33,-10,-3
12,15,17,20,21,-62,-9,11
8,6,7,38,26,66,7,1
3,3,12,16,4,-16,6,-2
-4,0,2,15,-13,-25,-2,-6
-5,0,6,73,22,-32,-10,1
12,10,20,11,-16,-5,9,17
-29,-20,-32,-52,70,-11,-24,-23
-6,-9,-20,-45,-90,-14,-4,-5
0,5,32,60,47,2,1,-4
2,6,11,-5,12,-6,1,0
7,9,17,99,33,-35,6,10
-5,-12,-38,-128,-43,42,-10,-10
-6,-10,-9,-31,-29,13,-9,-6
5,-2,-1,61,7,18,11,11
-7,-3,4,61,16,-14,-1,-7
-6,-15,-11,-1,21,-20,-12,-9
19,12,5,-46,13,-19,0,11
1,6,11,40,-8,-1,0,-7
-1,0,-6,-23,-39,-16,-2,0
-5,15,12,3,23,-11,10,9
4,-6,-11,-28,-49,53,10,1
-9,-11,-9,-42,-55,-53,-24,1
3,4,27,0,-36,50,9,0
-8,-17,-17,91,127,-13,-12,-9
6,-12,-24,-59,-93,-24,-2,8
3,5,10,-12,-8,-51,-5,8
-3,4,5,37,52,-20,-10,-15
-1,3,8,-73,-63,1,-1,-5
-10,-13,-7,-95,-10,-31,-11,4
13,11,5,98,34,54,22,17
-5,0,-7,-23,-1,-10,2,-9
-6,1,3,-30,6,-6,-10,-15
0,-5,11,28,-36,-42,-11,-1
-4,-9,-35,-128,-5,39,-5,-2
-4,-6,-7,-58,-15,-4,4,-1
-6,-10,-15,47,24,-15,-10,-7
9,5,-30,27,-7,-8,-1,6
1,6,4,28,-4,3,16,4
-9,4,11,25,31,17,1,-3
-7,-11,-14,-62,2,-19,-11,-7
0,0,10,-46,-54,-1,-3,-3
5,1,-2,47,39,3,7,12
-4,0,-7,-6,2,-9,-6,-13
-13,-13,-16,-58,17,-14,-17,-24
-14,-16,-19,-17,-77,-6,-22,-21
7,3,7,-1,-15,10,13,23
12,4,7,8,34,-57,-9,11
11,17,19,52,17,91,27,18
1,-1,14,97,127,-20,12,7
-2,-4,5,66,-3,-34,-11,-6
-13,-14,-9,-64,-128,-28,-19,-19
-2,-3,-4,-32,41,-1,-6,-4
1,4,14,9,10,-2,-2,-1
0,2,1,26,43,-3,-4,-6
-2,1,1,43,-16,13,0,-1
-3,4,6,-38,-46,-10,1,1
0,-7,-15,-99,-33,-17,-12,-6
-5,-11,-26,-8,-16,-19,-16,-14
-6,12,14,127,70,9,14,6
-10,-15,-13,-97,-5,106,8,-8
-2,-2,5,-42,5,6,-6,-9
3,1,4,6,1,-28,0,6
0,-2,4,-9,-41,-21,-5,5
9,5,1,21,-8,-19,-1,4
-1,6,13,44,21,20,1,-6
-12,-13,-24,-67,-23,-13,-14,-9
-1,-5,-5,6,-24,-7,-8,-6
6,4,3,37,-35,-27,-3,-1
-3,0,-8,-34,19,19,0,-4
-4,-6,-6,-15,59,-10,-1,-2
6,0,0,-50,-92,-25,5,1
1,4,5,8,-22,-2,-1,-7
-5,-1,0,30,79,-6,-4,-8
0,3,16,-29,-80,-12,-1,5
2,6,8,47,59,8,7,0
1,-1,5,-2,-1,21,3,6
-6,-8,-13,-76,-8,-8,-10,-6
-6,-8,-9,-42,4,-21,-14,-10
-5,-2,-16,28,-31,-57,-12,-2
-3,3,2,-92,-51,33,14,5
6,5,7,22,86,127,27,8
7,0,-6,15,25,-12,5,7
-1,6,23,127,-10,-3,-3,1
-4,-2,-6,30,1,-14,-7,-5
-7,-10,-21,-118,-52,-19,-15,-14
0,-1,-6,-19,-31,-7,-7,-3
3,3,14,86,42,-6,-2,-1
1,0,6,-12,32,37,7,5
-1,-1,5,20,2,7,9,0
-4,-7,-15,-47,-21,-11,-6,-4
-10,-11,-7,-12,-8,-13,-9,-4
4,6,-5,50,13,5,10,11
8,15,-1,127,111,-15,-4,-7
-1,6,22,-88,-90,35,4,-1
-6,-7,-9,-39,-7,8,-10,-12
-14,-16,-20,-101,-37,-24,-20,-13
0,-5,-4,-10,-29,-16,-8,5
0,2,10,45,35,-9,1,2
-16,0,8,21,45,9,5,-14
0,-1,3,-6,-7,0,2,-4
6,4,1,0,-1,1,-1,4
4,2,4,10,-6,-8,1,6
5,6,8,24,23,-31,-5,6
8,7,16,17,28,54,20,14
19,22,17,40,-19,-23,30,22
-10,-4,-8,87,-64,89,-28,-38
-34,-46,-56,-128,15,-26,-51,-35
-13,-23,-38,-21,-18,-42,-26,-17
12,11,24,127,105,-32,8,13
17,17,25,104,24,103,40,27
7,1,-9,-128,-59,-20,1,2
-11,1,8,31,-5,-20,-10,-26
-5,-2,2,-9,8,-27,-9,-6
-5,-3,0,39,11,39,6,-5
3,4,5,-14,19,-19,1,4
1,-4,-3,-1,2,-16,0,7
-1,2,3,-17,-6,5,3,6
-3,-5,9,-14,-7,-10,-3,-2
3,1,1,19,7,-13,2,4
-11,-6,-4,-61,22,-31,-16,-8
6,6,20,23,-43,8,2,0
-10,-1,0,24,-14,82,-9,-24
-13,-11,-30,-23,5,46,12,-5
6,-1,-16,-11,-39,-26,-14,3
-5,-3,-3,36,127,-6,2,-3
5,5,17,127,-93,-25,-3,2
-6,-10,-23,-128,-57,-30,-13,2
-10,-21,-31,-70,46,-3,-11,-5
0,0,-3,-6,-34,-14,-5,-2
-4,-6,-10,-63,-22,-12,-5,-5
0,0,-7,21,-22,1,4,1
2,3,9,-43,8,7,9,4
8,12,39,127,53,13,9,6
-5,-7,-5,-34,-78,-11,-6,-5
0,1,-6,18,-4,-7,-5,2
0,-3,-8,-34,1,-19,-6,-6
-1,0,10,26,40,-17,-9,-9
-10,-8,-13,-72,-64,-7,3,2
18,17,15,-10,-39,-32,12,24
-2,-2,7,13,-14,55,-8,-9
-11,-5,-9,23,18,9,4,-20
-1,-2,2,-2,-16,-34,-2,-1
-5,-2,0,9,10,-22,-9,-6
-4,-12,-21,-81,-57,-13,-11,-5
1,-2,0,1,19,-10,-3,5
-3,-2,-4,-1,-3,-5,-5,0
1,-2,0,21,32,0,4,2
-1,-1,-8,-12,-31,-6,-7,2
-6,-4,-17,4,-4,-15,-9,-5
-5,1,2,-1,4,11,-3,-6
-6,3,15,2,-5,27,1,-6
9,4,9,2,-17,7,6,9
11,4,13,115,127,-19,7,11
0,6,5,-83,-128,15,3,2
-12,-20,-38,-91,-46,-39,-28,-21
-2,3,27,127,127,-10,1,7
3,1,-4,-101,-79,14,-14,-14
-6,-11,-24,-96,-51,-2,-8,-8
-2,2,-19,-18,7,47,-1,-4
-1,4,2,-1,-84,-13,0,2
-1,-2,8,30,53,22,12,2
1,0,3,19,0,-8,10,7
-4,2,34,-2,-12,-34,-12,-7
2,-1,-10,-22,2,1,5,4
4,1,5,9,5,-5,1,6
-7,4,1,-5,-6,5,6,0
-20,-16,-11,-4,-13,-7,-20,-24
-8,-12,-22,-10,-7,-9,-15,-9
4,3,-2,-23,-7,6,3,0
5,5,7,12,14,1,2,4
1,1,12,86,-6,-12,2,2
2,-2,-9,-128,-60,-14,7,10
3,1,-2,26,52,-23,-7,4
-4,-7,-14,-32,-43,41,4,-3
0,-3,-5,70,33,0,2,-1
-5,-12,-30,-73,-19,-16,-11,-6
-1,1,4,19,86,0,5,1
-7,-10,-11,39,-15,9,-2,-7
-6,-13,-17,-122,-128,-25,-11,-7
9,4,-13,-47,2,-16,-5,8
4,6,-4,-29,38,33,10,6
6,6,9,28,-21,-3,7,7
1,5,10,70,43,11,4,3
-19,-17,-24,-19,-15,-5,-19,-26
-2,-3,0,27,-6,-9,-5,-7
-4,-6,-5,19,70,3,-3,9
-6,-6,-2,78,-1,13,1,-8
9,4,11,-68,-4,15,10,13
6,6,-1,-32,-13,-12,-2,8
-10,8,7,-25,-63,-39,2,-6
-13,-10,-11,-34,-38,-4,-7,-27
12,9,-3,68,119,50,21,15
-11,-6,-2,122,33,0,-6,-16
-7,-13,-6,-60,-27,-13,-12,-4
5,-13,-31,-60,-81,-28,-10,24
-1,4,22,-23,-58,-15,-4,3
-12,-16,-30,-108,-28,-71,-23,-25
-4,-11,-6,87,118,79,2,5
-1,3,4,31,-24,-2,4,-2
5,3,4,-18,-70,-10,2,5
13,13,14,7,18,-9,13,9
-4,-6,-1,39,127,22,-3,-2
-12,-10,-16,-2,45,-43,-17,-14
-7,-6,-5,-16,5,-7,-17,-11
-7,-6,-6,-11,-23,-5,-22,-9
1,-1,-2,-20,-77,11,37,9
0,4,8,17,13,-9,1,2
10,10,30,127,89,-12,2,16
-4,-1,-22,-76,21,23,-1,-3
-4,-4,-1,-39,-107,-33,-10,-10
-1,-5,-5,-51,-59,-23,-7,-8
-16,-10,-22,-67,-32,-15,-16,-11
5,6,9,24,44,11,10,12
-4,7,15,3,-2,10,-2,-7
-22,-21,-42,-82,-24,-68,-33,-31
2,5,5,-8,-128,49,3,2
-2,1,3,5,127,27,4,5
-15,-10,25,127,16,-62,-13,-5
18,8,-5,-44,-5,77,6,18
10,9,16,67,-49,-19,17,-4
0,1,-1,-30,37,35,-4,-15
-12,-20,-39,-128,-108,-35,-21,-9
-15,-7,4,-3,98,-5,-6,-5
-2,-6,-4,19,-128,-39,-2,3
4,-7,-6,64,127,87,7,0
-14,-17,-19,-29,48,-18,-13,-9
5,9,13,13,-42,-2,6,11
20,14,19,-17,-14,-8,17,23
-5,3,4,22,-7,-16,-3,-14
-40,-10,-11,59,-3,27,-23,-56
-13,-2,14,21,-101,-30,-25,-7
2,-9,-17,-12,127,28,11,2
8,14,28,-16,-125,-1,21,9
-17,-27,-26,-98,31,-1,-23,-13
-3,-10,-13,-23,-14,-58,-17,0
2,6,11,-2,26,-16,-10,-2
-1,5,21,80,127,21,-8,-11
-6,-5,-12,-55,-56,-34,-9,3
1,3,18,46,47,43,15,5
5,-5,-13,20,40,4,3,4
3,3,14,-7,-128,-63,-8,2
-6,-2,0,-39,117,30,-17,-4
-14,-14,-24,-13,-77,-35,3,1
6,3,-8,9,24,52,17,12
11,14,11,12,3,-33,9,-3
11,17,-6,-58,-128,-35,-5,-10
-24,-29,-23,40,127,-2,-30,-36
-2,-7,3,8,39,1,-2,11
2,-11,-12,-34,-60,-23,-10,-1
0,8,23,17,-3,14,13,10
5,13,20,92,-3,3,7,-2
-5,-4,-1,-88,-102,32,0,-12
-8,-6,0,-18,54,-31,-11,-12
0,-13,-44,-109,-64,-25,-9,3
17,1,-4,-7,2,-13,11,34
-1,11,8,23,33,-3,-15,-11
-21,-5,-7,22,71,18,-17,-40
1,4,19,-52,-94,20,28,9
12,-1,7,42,-7,-28,-3,25
7,3,-10,87,127,13,6,16
2,2,4,-88,-128,-81,-2,-3
-12,-17,-40,-56,-74,30,-11,-16
-10,-1,12,-12,127,11,-13,-15
-5,-5,0,29,-20,-9,-12,-10
6,9,10,12,-6,-1,5,24
2,11,8,22,23,10,17,12
4,2,8,81,80,20,2,2
5,1,9,-23,-128,-7,-4,5
-27,-14,-13,-43,-12,-20,0,-8
0,4,2,-12,3,-31,-8,-12
6,8,9,33,7,31,-9,0
10,12,18,13,11,118,36,11
7,-6,-7,-25,-66,2,20,6
-11,-15,-15,-59,-57,-44,-14,-6
-7,-3,3,88,127,-17,-11,-5
14,20,36,84,-5,13,17,17
1,-2,-11,-51,-68,-14,-8,-5
-16,-20,-29,-79,0,-24,-19,-28
6,4,7,37,24,17,2,18
-13,-11,-4,71,58,-3,-10,-12
10,12,9,30,5,25,9,5
-7,-5,-7,7,0,20,-3,-10
-4,-6,-7,-52,-82,-37,-12,-7
-2,-2,-3,-3,82,14,4,-8
1,-1,6,55,46,4,-2,3
18,16,29,56,33,8,18,21
-11,-3,-13,-84,-47,-43,-13,2
0,-5,-22,-128,-94,81,0,-3
-9,-10,-7,-12,-14,2,-14,-11
-9,-8,7,59,72,-93,-28,-17
4,9,31,127,1,127,32,13
-2,2,-4,121,7,-18,0,-6
-1,-19,-55,-128,-66,-60,-19,4
-7,-22,-40,-82,-86,33,-9,5
9,14,21,87,40,4,12,8
0,10,33,127,127,3,-4,-7
-3,8,38,114,39,21,-5,-2
-15,-22,-46,-128,-128,-62,-21,-23
-3,-8,-11,-7,18,-19,-1,1
0,4,11,64,91,35,3,1
-4,3,10,36,114,-4,-11,-16
8,15,27,2,-128,10,15,12
-23,-23,2,80,127,-120,-38,-25
10,4,-11,-68,-16,127,23,15
15,5,-4,-64,-51,5,20,17
-11,-3,-5,-1,-13,5,2,-2
-4,-5,-1,-8,-12,-9,-10,-5
1,-3,-7,-35,-17,-60,-16,-14
-3,-4,-13,0,11,79,8,-4
-1,0,2,-6,-4,-25,-4,-8
5,-6,-6,-19,-27,22,10,21
-2,-6,3,1,9,0,2,14
-7,-5,-26,-18,49,4,-1,-14
-4,-1,-5,4,-61,-14,-15,-18
-6,-5,2,-7,-12,-6,-6,-9
1,-5,2,17,72,6,3,4
-2,3,9,-5,4,0,5,3
-4,-9,-12,39,-5,-78,-20,2
27,35,23,87,72,127,44,16
-12,-4,-14,-98,-128,-26,-7,-25
-24,-26,-31,-62,123,-24,-30,-34
0,-10,-4,-20,52,-61,-19,-3
9,7,-8,71,84,52,7,7
6,4,0,-14,0,3,7,9
-3,-5,-16,-92,-57,-18,-7,-6
11,12,27,127,26,-15,2,4
10,27,57,127,70,18,21,9
-23,-42,-68,-128,-100,20,-28,-27
-19,-27,-39,40,-27,-29,-21,-17
2,3,2,43,-20,-6,4,5
4,3,5,71,38,9,0,2
12,15,20,42,24,9,14,22
3,5,5,16,10,2,4,1
11,7,0,51,67,11,13,7
1,2,0,-60,-73,-3,-2,-6
-17,-15,-15,40,-33,-16,-23,-22
-17,-19,-14,-128,-109,-21,-20,-21
-6,1,9,-4,37,-23,-3,11
1,-4,1,-16,25,3,-1,1
9,3,-10,-6,-4,-11,4,0
6,1,2,4,43,50,3,5
-1,0,-7,-25,-40,-5,6,3
-4,5,4,-5,-33,-18,4,2
3,2,2,5,-26,7,9,-4
-17,-20,-7,73,86,-37,-31,-23
18,21,39,80,127,60,16,14
-11,-18,-33,-128,-92,46,-5,-8
-12,-13,-20,-117,-65,-44,-12,-10
3,5,8,5,10,-57,-9,-3
9,2,18,51,-12,25,10,20
10,9,10,5,7,9,10,11
3,6,12,46,10,0,12,1
3,8,-7,3,46,7,14,5
-18,-19,-21,-22,-24,-31,-23,-22
-3,2,14,63,-19,-23,-14,-2
-9,-10,10,-36,59,26,-1,-9
7,-3,-8,-27,2,-34,-1,9
-10,-14,-21,-102,-96,11,-11,-8
-7,-1,-7,22,32,-10,-5,-13
3,0,-1,26,33,-5,-8,11
4,15,24,77,44,50,28,9
-5,2,-9,-124,-128,8,8,-1
-23,-22,-26,-39,39,-28,-25,-30
6,3,5,55,-27,-17,1,5
0,4,3,43,66,13,-1,10
7,9,12,-14,-29,-10,-3,11
-14,-8,-12,-25,-28,-20,-20,-34
-25,-13,-5,-4,17,-1,-9,-40
14,3,8,-7,34,-12,0,18
22,10,6,8,34,4,11,23
15,10,14,35,-70,42,21,30
-5,-1,-1,3,38,-27,-6,-8
-11,-10,-19,-128,-123,-27,-7,-12
-14,-16,-8,-36,86,-1,-17,-11
-2,-5,-11,-37,-118,-17,-8,1
-3,5,29,127,87,-5,-3,4
11,20,49,75,19,0,20,16
-19,-27,-63,-128,-16,15,-16,-18
1,-6,-13,-42,-83,3,-3,5
13,13,17,49,127,-9,19,17
-8,-5,5,127,-60,34,-9,-16
-11,-11,3,44,-62,-27,-15,-11
-11,-13,-35,-46,-24,-24,-13,-18
1,6,12,2,72,-22,3,-2
7,3,-2,8,-86,26,18,9
-2,-5,-6,-63,72,13,-3,2
-2,3,20,127,21,-14,6,6
2,0,-17,-128,42,-11,0,0
14,7,-13,-30,-93,-6,3,8
-1,-3,-12,-66,13,9,-6,-5
5,10,25,78,30,40,13,7
-16,-18,-26,-8,11,-21,-20,-20
-20,-22,-28,9,-4,-21,-26,-26
1,2,8,17,34,-4,19,11
1,13,32,22,26,-7,12,6
4,2,7,17,12,-40,-4,4
8,1,4,-16,-17,24,19,15
-1,-1,0,-6,-5,73,5,3
-5,1,1,-24,-95,-34,-5,-15
-5,0,-4,23,12,19,-8,-14
-9,1,9,48,-51,-12,-7,-11
-12,-18,-36,-128,4,-12,-10,-8
-10,-10,0,12,18,-17,-14,-14
9,6,10,33,1,11,10,26
-4,-4,9,29,13,-44,-9,-9
0,0,-5,-61,-55,13,0,-6
-5,-6,-20,-107,-7,98,20,5
-1,-2,-13,45,39,-52,-24,-6
-2,-3,-2,-73,-45,72,17,3
11,14,11,67,73,25,17,14
-6,-8,-20,-128,-128,-32,-13,-6
-16,-19,-4,44,127,-12,-26,-22
8,8,16,103,66,-11,7,7
6,5,10,1,21,12,3,15
-16,-17,-36,-128,-74,-47,-14,-18
-11,-5,1,2,-50,44,-10,-26
-4,1,3,68,44,7,10,-4
-4,-1,-3,-27,-18,-9,-4,-12
-2,0,13,-22,0,1,1,7
7,4,10,0,-12,-17,7,10
-7,-6,2,15,-45,16,-12,2
8,7,-2,-11,51,-9,6,-4
-12,-14,-11,10,14,39,2,-10
9,11,25,78,20,7,15,12
-2,3,19,21,-60,0,-3,3
-19,-19,-54,-68,-37,-11,-16,-22
-5,-6,-12,-31,10,3,-6,-21
8,-1,-6,-61,-17,-27,-10,25
-6,-5,-10,-14,29,-33,-11,-11
6,11,5,15,85,84,31,8
0,7,20,127,-34,11,4,-3
0,4,3,-69,-106,23,4,-1
-22,-33,-59,-128,-128,-46,-38,-23
-5,-16,-26,-20,-99,-43,-10,-1
-2,4,3,53,25,-3,0,-3
7,7,8,38,95,-6,11,7
7,9,32,108,47,7,12,11
3,12,27,32,52,-4,13,4
6,2,6,15,62,-1,0,4
-8,-14,-37,-14,-38,-1,-15,-20
-18,-11,-12,-30,-19,-6,-15,-14
-1,-2,0,-48,-35,-3,20,8
6,5,5,-36,-10,-11,4,5
-2,0,6,8,6,29,-7,-5
-7,-6,-10,-21,0,-50,-15,-9
-2,-3,0,-4,-16,21,9,7
7,12,-17,31,35,24,22,17
-5,-6,1,0,-23,1,0,-1
-16,-17,-28,-25,-7,1,-27,-22
4,4,-3,-7,-49,-68,-15,-11
8,4,11,81,106,57,4,5
9,22,21,71,82,67,37,15
-13,-20,-28,-128,-128,-49,-24,-15
2,-5,-10,-16,36,-4,-6,-3
-10,-6,17,5,27,-14,-14,-26
5,-14,-33,-58,-87,-34,-3,21
9,9,9,29,98,-1,12,20
-9,4,37,127,127,38,1,-15
1,7,-4,-19,-1,-46,-1,-2
-16,-22,-44,-128,-45,85,-6,-12
-2,0,14,-33,-47,5,-8,-2
11,8,6,67,24,-15,8,7
2,4,9,28,-22,-11,-7,-3
-3,1,18,56,51,4,3,2
-1,0,4,24,2,-56,7,-5
3,11,10,-7,4,101,15,8
2,1,4,10,-1,-4,1,0
-9,-5,-8,49,103,-4,-13,-12
-8,-10,-23,-20,-128,10,-3,-8
-15,-19,-35,-108,-13,-10,-25,-19
2,1,18,24,65,-14,7,1
6,5,0,10,39,-6,-1,8
-18,-11,-12,14,41,1,-13,-9
3,0,1,45,-38,5,2,-2
6,8,15,12,5,1,0,3
10,3,-25,5,12,-8,-2,10
-1,1,0,-8,-35,11,18,11
5,6,8,-28,-24,25,11,-3
-1,1,-1,97,51,3,-9,6
5,7,7,52,-19,-5,4,5
-21,-26,-38,-128,-94,-26,-20,-19
-4,-7,-3,13,-18,-4,-8,-1
3,2,-5,-6,-89,-23,-5,3
6,7,10,-8,13,8,7,3
-11,-8,-6,20,-17,-2,-14,-9
2,-1,1,0,-1,-14,-1,-1
13,18,15,18,-20,-23,14,18
-5,-6,-12,-45,-13,3,-7,-14
-7,-5,22,122,54,-31,-11,-15
0,2,-2,-40,-19,16,2,-4
-6,-7,-8,20,89,10,-3,-4
-2,-7,-16,-107,-81,-40,2,13
12,8,7,2,-9,46,10,12
-3,6,20,127,25,-12,-4,-11
-13,2,15,19,127,48,-8,-19
3,-1,-12,-128,-128,-30,-3,6
-4,-18,-30,-89,-35,-60,-5,5
-4,-9,-11,11,36,-5,-13,-12
-3,-3,0,29,11,-5,-3,-2
-4,-2,-7,35,41,14,-2,1
10,6,23,17,0,12,12,17
6,1,0,26,26,-7,1,16
-12,-10,-1,-66,-41,10,-7,-20
2,3,4,11,48,-42,-5,-7
5,8,9,-23,-23,3,0,2
-2,-2,-2,-24,-67,53,12,2
4,7,28,0,53,14,10,9
-6,-5,-2,20,83,-46,-17,-7
-10,-13,-23,-23,14,-1,-18,-17
5,9,26,126,47,13,12,3
1,0,-10,-85,54,1,0,2
-8,-12,-23,-74,-128,-24,-10,-6
-5,-9,-10,40,107,-19,-7,0
9,10,14,127,79,17,17,11
3,17,38,104,102,-12,2,-4
-11,-25,-67,-128,-128,-14,-17,-15
5,1,7,80,10,18,12,15
7,12,22,127,127,7,13,6
-3,-6,7,-33,-17,31,-4,-10
-13,-10,-20,-46,-16,6,-7,-15
5,10,14,36,19,4,-7,1
-9,-6,-7,15,2,-21,-11,-13
3,8,12,27,-34,-30,12,9
2,0,6,-37,-25,7,6,9
10,8,9,54,45,-5,6,15
-8,-2,7,-10,19,27,-15,-19
-27,-13,-14,-44,-27,-3,-8,-25
14,13,15,57,87,107,28,14
-6,-25,-64,-128,-128,-71,-33,-8
-11,-14,-17,-103,-29,-52,-16,-12
2,7,18,95,71,-36,-2,3
-2,2,-5,104,22,114,11,0
-2,2,3,15,38,-30,0,1
6,3,9,38,22,14,5,8
2,-1,-7,-119,-17,-14,0,9
-9,-8,-27,-128,-128,-34,-19,-18
-15,-8,9,127,127,13,-15,-17
-1,-4,-8,-128,-128,-11,-9,-6
-2,-20,-61,21,46,-20,-7,7
17,16,21,-4,8,25,24,27
-9,1,-5,13,17,5,-2,-13
-1,9,16,70,6,-2,6,-17
2,7,17,0,56,23,5,-5
-5,-9,-13,-42,-93,-23,-15,-1
-2,-4,-10,-13,-15,12,-12,-3
4,1,0,0,1,-46,0,7
-7,6,15,17,10,-18,12,-21
-7,-1,-9,64,118,-9,-10,2
-4,-12,-17,-106,-128,76,22,13
1,-7,-11,-47,82,-55,-15,5
6,3,12,29,37,75,14,11
18,19,21,11,35,-38,20,18
-6,-4,2,126,73,-28,-16,-14
-12,-7,19,51,-87,11,-9,-16
-6,-13,-30,-128,-78,21,-6,-9
-11,-11,-15,-18,18,-3,-7,-8
9,8,26,-33,-10,-21,-2,0
0,6,4,53,-72,-35,-7,-1
-2,-12,-33,-128,-128,-24,-9,-7
-5,-9,4,107,127,-11,-6,0
-4,5,11,48,84,29,-18,-3
3,4,-1,33,-31,4,35,8
6,4,6,-86,-104,14,7,10
-8,-14,-32,-72,-45,-63,-23,-15
-8,0,5,14,34,-1,-3,-6
-3,1,17,8,-26,27,5,-8
0,-8,-14,-54,11,-5,-5,-4
6,-1,6,33,-20,-10,7,15
-9,-7,-8,-7,9,3,-4,-8
1,-6,-2,2,-3,-8,-7,0
6,0,-1,4,13,0,-2,7
-22,-3,-4,-16,-3,9,-5,-22
-3,1,3,-20,-12,-1,2,2
5,5,30,127,-3,-32,-4,6
-9,-8,-3,-61,3,16,-8,-7
-7,-8,-14,25,18,32,-6,-6
4,11,19,116,70,8,6,5
-9,-16,-31,-128,-128,-51,-11,-8
0,-10,-38,17,7,18,-4,4
0,-3,3,14,-52,-27,7,3
6,7,7,81,32,-11,2,5
0,0,0,-47,-13,10,3,-1
-4,0,10,32,33,77,7,-4
2,-1,8,-8,-24,-45,-8,3
0,5,4,48,83,11,-4,0
-7,3,-1,74,-55,1,-5,-15
-3,-2,12,88,119,-4,5,-10
-11,-22,-50,-128,-128,-94,-26,-10
1,-5,-7,92,63,65,6,2
12,14,31,71,25,26,21,15
6,6,6,7,61,19,1,6
1,3,9,34,11,16,-5,-5
-5,3,12,127,127,1,2,-15
-11,-26,-48,-128,-128,-100,-26,-5
-4,-7,-20,30,8,-24,2,-2
3,6,10,37,9,17,10,8
-2,4,6,65,70,-8,2,-3
-2,0,13,66,91,10,-13,-10
7,2,-18,-57,-122,17,5,5
-18,-4,19,-42,-21,-8,-12,-15
8,1,-13,62,53,42,20,17
-2,2,12,105,0,-7,1,1
-9,-12,-28,-128,-106,-42,-10,-16
-1,-4,-22,66,-29,8,-4,10
-11,-13,-16,24,44,-7,-20,-13
-3,3,0,-10,-29,-7,-1,-4
3,5,8,69,14,36,13,6
-1,-3,-6,-79,-22,-38,-7,2
-3,-2,10,34,127,29,-5,-4
2,9,19,-15,-30,-18,-6,2
2,-2,0,-10,-128,1,26,8
-10,-15,-40,-128,-72,-26,-16,-17
-2,-7,3,-10,70,-13,-12,-6
5,7,32,127,109,-15,1,2
6,3,2,-32,-69,-29,-6,3
-11,-15,-2,25,31,14,-16,-13
4,1,8,-128,-126,7,4,9
-1,3,-12,0,-46,-14,2,-2
-2,0,-12,38,20,2,-5,-9
1,5,17,42,97,-11,-1,-6
-11,-14,-15,-3,-43,14,-12,-7
-3,-4,-7,4,25,38,10,0
-2,-6,-21,-128,-116,-45,-7,0
1,6,13,32,5,-5,0,1
4,1,-6,31,26,10,0,3
12,4,7,31,13,-3,5,26
5,6,3,8,12,5,3,-7
-10,-11,-30,0,-6,-5,-10,-14
-8,-11,-18,-33,-6,-11,-19,-10
4,3,4,-11,-2,-2,-1,-1
7,6,6,-15,2,4,5,7
1,7,26,-15,23,-26,0,2
0,4,6,43,-40,19,9,10
-5,-14,-24,39,-55,-15,-8,-1
-4,4,19,50,64,16,-3,-7
1,2,-6,-18,28,-1,1,-1
-15,-9,28,-28,18,-47,-22,-15
-3,-5,4,-57,-44,-32,-6,3
6,8,6,-20,-32,67,12,8
3,8,25,59,-17,-27,0,4
0,10,27,127,127,-39,-4,-1
-12,-24,-54,-128,-128,64,-1,-11
-4,-11,-16,0,-25,-55,-7,-2
-1,2,19,111,45,32,0,-2
0,-1,8,44,28,6,-13,-9
-2,-5,-6,19,-7,-21,-3,-4
-3,-2,-1,-45,-21,-9,-1,0
4,4,6,58,34,9,5,0
1,3,-1,-47,-33,5,2,2
-9,-11,-27,-67,-31,-24,-7,-1
3,2,11,9,-15,1,1,-4
-12,-9,-18,-38,18,9,-9,-9
-7,-15,-13,-74,-4,-27,-15,-4
14,9,2,7,-37,-28,2,5
-4,-1,-2,9,29,23,-4,-16
2,5,3,40,13,59,6,1
5,4,4,6,-4,-47,3,7
5,9,30,127,127,-2,7,6
-7,-1,8,10,-111,-23,1,-2
-7,-10,-14,-128,-29,50,-7,-10
1,-3,-13,18,-5,-3,4,0
-8,-13,-19,-86,-35,-73,-23,-10
-3,0,-20,-23,-31,12,14,7
4,1,10,-38,-27,-5,2,1
0,2,26,116,57,1,-3,-2
1,-3,-19,54,98,-2,-1,1
-10,-16,-3,-128,-103,-26,-13,-8
-4,-3,-2,12,-41,-8,-7,-19
7,5,6,66,23,8,6,16
5,4,9,104,69,12,0,5
-7,-3,-8,-118,-84,-17,-5,-14
-6,-7,-19,-4,-13,-13,-8,-5
6,5,7,59,0,11,6,5
0,3,22,53,26,13,14,13
9,4,-1,-72,-27,-42,-10,6
-28,-24,-36,-15,-19,26,-16,-41
-11,-3,-4,-41,-36,-15,-9,-19
-2,-1,-11,-20,4,-57,-14,-12
6,8,11,2,11,30,0,16
10,6,13,18,36,13,18,17
-13,3,9,-14,-34,9,4,-5
2,-2,5,44,-5,-18,1,-5
-3,-6,-19,-12,-1,-26,-8,-10
3,3,5,-45,4,-11,-5,4
-1,-6,1,35,-45,31,6,2
-5,-8,-16,-58,-80,60,10,-2
2,6,19,11,15,-56,-6,0
4,1,-5,11,-68,5,3,5
-1,-1,4,-46,52,-8,-9,-4
-5,-4,2,17,45,-28,-13,-4
0,5,11,59,94,47,5,4
1,5,11,51,-67,-21,8,3
1,9,15,127,17,-10,5,8
-7,-17,-55,-128,-128,-91,-20,-6
1,-1,0,127,127,33,-2,-18
-12,-25,-49,-128,-128,-40,-23,-16
-9,-8,-4,-4,44,-17,-7,-2
2,7,38,76,69,5,-3,-14
19,17,21,52,56,38,25,45
5,4,19,26,-6,-14,-8,9
-14,-14,-24,-21,3,-8,-9,-17
5,1,0,-20,9,-7,5,5
-1,1,0,-9,-4,6,0,-8
-19,-3,4,-10,-55,-38,-15,-22
3,-5,-26,-27,-37,-7,0,-8
3,2,-8,-24,31,45,8,9
0,-4,-3,0,-13,4,6,4
-4,-5,-2,-5,1,25,-6,-2
9,12,30,41,-5,-34,0,4
-3,3,7,-49,4,-12,-6,-2
4,6,17,46,72,34,20,7
-8,-14,-26,-83,-75,-52,-15,-5
-10,-9,-7,45,111,-20,-16,-11
-2,0,0,-99,9,-14,-6,-2
1,3,8,42,-34,-7,-2,2
-1,3,-9,-80,-38,-20,1,-1
4,4,-11,32,31,14,3,8
3,7,12,45,56,-38,-2,6
-6,-5,12,49,42,127,21,-13
-20,-36,-75,-128,-128,-48,-38,-25
-9,-3,-7,127,41,-24,9,7
4,3,3,18,-12,20,12,7
-13,-10,-6,20,57,-11,-26,-25
-8,-11,-12,39,16,-42,-29,-11
4,0,3,-10,4,32,22,5
10,14,11,7,6,7,20,18
4,0,0,1,14,-3,3,1
7,8,20,103,74,2,3,0
-2,-11,-25,-128,-95,-34,-8,13
1,2,6,-5,-29,-17,-1,1
-16,-15,-23,-81,-65,-24,-24,-14
-5,-6,-2,17,15,69,7,-6
-1,-1,1,6,-34,-8,-4,-5
-1,0,9,22,44,-8,-5,-1
-1,2,26,11,21,8,4,2
-1,6,7,75,106,-41,1,0
-6,-6,-12,-128,-128,29,2,-3
-9,-20,-39,-4,25,-37,-6,-11
0,-1,1,21,6,66,5,1
-3,-7,-7,-37,-2,-21,-11,-8
-3,-2,2,5,10,-25,-14,-6
-1,-3,-9,31,58,35,12,1
2,3,-8,-63,-75,-6,23,7
3,3,7,-19,-5,-27,-6,2
-18,-16,-17,32,9,-21,-20,-19
-2,4,9,10,49,37,0,-1
21,16,30,118,24,1,26,22
-10,-14,-23,-128,-97,-68,-26,-16
-18,-12,-28,-62,67,11,-6,-14
-2,-6,-5,0,-115,-31,-12,-6
3,-4,-25,-128,-90,-67,-4,13
-3,-2,4,65,103,116,10,-7
0,1,1,16,40,-2,-6,-10
-5,-2,-5,10,22,0,-11,-14
-3,-10,1,-2,-42,-21,-8,-5
8,4,-2,30,12,35,26,13
2,12,22,127,89,-14,1,5
-2,-7,-21,-128,-128,-16,0,0
5,1,-2,-1,65,-10,-6,8
0,-10,-24,28,1,-7,-1,0
1,0,0,-20,-1,-10,-3,-5
-1,1,4,14,0,-4,-5,-4
-4,-3,4,17,6,-20,-9,-1
-2,2,-1,-16,6,-26,-10,0
5,9,4,54,-14,12,17,3
0,-3,4,-31,16,63,15,3
7,-9,-21,-125,-105,-40,-5,7
-10,-1,0,52,77,-29,-11,-12
-12,0,6,-28,-62,12,-7,-20
-2,-9,-16,-37,-11,-12,-18,-9
-1,-1,-9,27,-10,-19,-1,3
9,13,25,67,86,10,6,3
-4,-5,6,-23,-34,22,-4,3
-12,-25,-48,-128,-128,-49,-18,-6
-4,0,19,116,-24,0,-8,-10
-3,-2,-1,-90,-78,-33,-5,-8
0,-1,-16,41,61,35,-5,-1
17,11,14,7,46,41,18,23
5,7,9,48,40,4,11,16
2,7,12,17,15,17,11,4
-4,-4,-7,-1,-15,-24,-9,-7
-14,-5,-5,-17,11,-14,-17,-19
-7,-5,-5,28,-2,91,7,-13
2,2,-1,-14,39,-5,1,2
-6,-8,-18,-2,-50,-14,-9,-6
1,-4,-2,-11,-31,-36,-11,0
-3,-1,-10,35,50,6,-3,-2
-13,-4,0,-34,-28,-28,4,-5
-1,-3,-5,52,71,52,10,-1
3,4,14,-12,-22,23,9,5
2,-5,-15,-21,4,5,1,4
0,1,3,0,2,-15,-4,-4
-2,-5,-6,-54,34,-4,-9,-4
5,-1,-5,-57,-128,-30,3,8
2,3,9,36,17,12,3,6
-14,-9,-11,9,53,-17,-15,-19
-12,-6,3,36,19,7,-5,-4
12,12,12,127,56,-26,8,14
-11,-10,-33,-98,-39,-51,-29,-26
-6,-8,-4,-113,-45,87,17,-4
-1,-7,-10,-41,-54,-2,-2,-1
-5,-5,23,14,-51,-25,-5,1
16,13,13,52,70,34,11,18
-2,-6,-2,29,-9,-10,-8,0
-7,-5,-5,-32,-7,-44,-12,-10
0,3,4,55,58,23,0,1
3,8,9,1,28,-2,3,2
-9,-7,-4,14,-9,-42,-1,-1
-5,-7,-4,-32,-50,-18,-3,1
-3,-8,-11,-28,-16,-8,-4,-11
7,9,11,50,44,19,2,9
-2,-5,-3,-57,-32,-90,-6,1
-5,-6,-6,-25,-21,44,-10,-1
0,2,2,1,38,106,20,1
-7,-5,-1,41,1,15,-1,-9
0,3,4,-4,1,-12,1,0
8,0,-3,97,30,-19,2,11
9,1,6,-92,6,2,-6,1
-4,-2,-13,34,-27,-52,-12,-1
3,7,4,-10,-44,4,20,2
5,6,7,63,79,56,5,4
-5,-6,-6,-18,-93,-25,-16,-7
-13,-21,-35,-128,-40,-37,-21,-14
2,1,19,127,95,7,3,-1
0,-5,-13,-81,-76,49,2,3
-8,-12,-47,-65,13,-58,-4,1
9,15,19,23,-11,-25,0,9
-9,-6,-1,-3,-7,-61,-25,-3
0,5,19,30,-19,-57,2,-7
4,2,-3,14,81,126,16,1
-5,-3,-6,127,-90,-96,-13,-13
-9,-7,-22,-128,-54,68,-5,-6
-6,-8,0,-112,-57,-50,-12,-4
9,6,10,4,29,-38,-2,10
-1,1,22,83,95,27,-7,2
-3,3,-1,44,-19,28,20,0
0,1,5,17,-35,16,7,3
0,-9,-11,15,58,-52,-8,5
11,12,17,29,-2,34,13,15
-14,1,3,8,-55,16,-5,-14
-5,-7,-12,-62,-52,-50,-9,-16
-6,-13,-12,-37,-42,-13,-14,-9
-3,-6,-6,-23,47,-8,-4,-1
-3,-3,1,11,4,-5,5,6
1,-5,-8,-75,-24,7,0,7
14,18,24,127,51,-15,12,11
-10,-12,-20,-128,-58,17,-8,-14
-14,-17,-14,-23,-21,-24,-14,-8
-1,1,5,26,18,-6,2,3
-5,-2,-15,10,2,-10,-7,-17
-7,-5,-10,-26,0,-9,-7,-7
-7,-2,-5,1,10,1,-6,-8
-2,1,16,116,52,-16,1,2
3,-1,-5,-120,-75,-22,-8,9
6,2,3,32,7,65,20,8
1,-7,-13,-85,-37,3,0,3
0,3,10,-10,27,-49,-1,-4
-8,-5,4,65,83,8,-4,-7
-9,-8,21,-9,-110,-16,-14,-8
3,8,27,64,110,-17,4,1
0,1,6,-8,-75,45,0,-1
-4,-5,6,55,-74,-27,-10,0
-7,-21,-65,-128,-48,-35,-15,-6
2,5,-4,-69,-50,28,20,6
-9,-3,13,51,127,-39,-28,-9
10,4,6,99,50,127,82,17
17,26,45,127,40,-23,13,14
-14,-12,-22,-128,-62,-55,-22,-16
-23,-19,-29,-55,-87,-45,-31,-23
-6,-7,0,6,-40,-11,-5,-6
1,5,22,35,42,-10,4,0
11,8,9,25,31,35,8,12
-4,-4,-19,13,26,5,1,2
-13,-6,-5,-5,0,-3,-14,-11
3,0,5,1,2,8,2,1
4,2,2,1,-1,9,-1,-1
3,0,-5,-10,-20,-7,2,4
0,3,7,4,58,-10,6,11
-3,-2,-5,-8,-33,44,5,-5
-13,-11,-9,-35,-30,-7,-8,-11
0,-3,-11,-12,-23,2,-3,-1
-1,-1,8,33,34,7,-1,0
-5,2,5,-30,14,0,0,3
0,2,4,32,-1,8,12,10
17,15,14,67,24,-32,-3,16
-10,0,17,127,127,-10,-24,-20
-9,-14,-29,-128,-128,77,10,-4
-10,-20,-45,-51,-32,-48,-16,-9
-7,-7,-15,41,90,-24,2,-1
3,14,47,108,79,14,-2,1
3,9,7,57,6,-7,4,3
1,-1,6,48,22,8,-4,-1
1,5,9,-1,1,9,4,5
-13,0,5,6,9,-12,-6,-8
1,0,-5,-26,-62,65,16,-4
-1,1,-5,-22,-17,-13,-4,-3
2,1,11,67,-11,-54,7,7
1,0,22,-23,-47,15,-2,3
-5,-8,-7,19,-38,-11,-8,-10
-4,-13,-36,-93,22,1,-7,-1
5,2,4,10,-14,5,5,3
1,1,6,15,0,-27,-4,-2
-11,1,7,-22,-6,-41,-18,-15
-1,4,11,61,-22,51,19,0
-1,-6,-7,0,-12,31,3,-2
5,2,-6,-45,96,2,5,11
3,-6,-28,-68,-77,-7,-14,-6
-6,-11,-13,-39,-56,42,-2,-9
-5,-4,-1,10,53,-13,-5,-2
-3,1,2,16,-55,-11,-4,-3
5,3,1,33,23,6,5,2
4,2,3,10,8,-7,5,10
8,3,-1,-23,24,10,5,10
-7,8,28,127,82,17,3,-7
4,17,27,41,20,-13,4,-7
-7,-14,-20,-128,-76,24,-11,-12
-8,-20,-43,-105,-115,-64,-24,-5
-8,-4,-14,13,-35,15,-2,-8
5,12,22,59,61,-5,2,5
0,-2,2,55,47,-12,1,3
7,5,-5,-16,4,1,4,16
2,4,7,34,14,-13,-1,5
1,4,10,23,36,-13,-4,0
-1,10,27,8,5,35,7,-1
4,0,-6,127,-59,-31,18,9
-5,-11,-31,-128,-101,70,10,-6
-8,-7,-11,69,28,-36,-24,-14
1,4,-6,-3,-7,-2,-5,-5
-2,-1,6,12,2,-10,-2,-5
3,4,4,-7,18,-17,5,5
0,1,5,19,17,-1,5,0
-7,-7,-5,-7,18,-8,-12,-6
-10,-6,-4,-39,-11,-33,-13,-8
-6,-1,19,18,1,61,4,1
2,-4,3,20,64,-33,4,6
14,15,13,65,-11,16,4,7
-12,-17,-32,-85,-58,19,-11,-17
-11,-9,-8,-19,-26,-15,-10,-15
-2,-2,-5,-5,17,-13,-4,-5
-7,-12,-10,-38,48,-11,-10,-2
8,-2,-12,-54,-116,-2,6,8
1,-5,-16,-24,-13,-3,-4,4
-4,8,6,4,13,-2,7,-1
3,9,18,17,27,32,9,0
-2,1,14,127,67,-6,-8,1
5,-1,-15,7,6,-25,-1,-3
-14,-12,-20,-104,-110,4,-13,-15
1,-4,-6,47,51,3,-3,-2
-6,1,14,-22,-19,-8,1,-3
2,3,0,30,39,22,5,-2
0,1,-3,-17,31,-14,-5,0
-2,-5,9,-97,-42,-101,-15,3
6,9,20,127,53,127,36,13
12,19,39,15,44,-37,23,8
-16,-22,-33,-128,-72,-17,-27,-26
-10,-9,-1,-2,-56,-14,-14,-7
4,0,3,29,39,-30,-7,3
4,3,10,13,32,37,12,3
4,1,21,-30,20,-5,1,6
-1,-6,-27,5,-17,-13,-7,-1
2,2,-8,-32,-30,-37,-6,0
-5,0,6,18,27,-4,-7,-8
-6,-5,7,11,-2,38,7,-3
2,2,5,7,4,13,11,7
0,6,7,-14,-31,-20,2,5
-3,-6,-15,-4,35,-31,-11,-3
-5,-6,3,10,-1,-22,-13,-5
-1,-2,8,-4,-20,53,10,4
14,8,7,-4,-79,-36,10,14
4,6,15,127,80,-2,-1,3
-27,-21,-19,-114,48,-7,-24,-26
4,-6,-16,-128,-128,-39,-15,-12
-3,-8,-20,31,-56,18,-6,-8
2,7,22,-21,61,-16,-1,1
3,-4,-10,2,42,15,7,6
7,7,13,127,52,-17,6,9
-7,-8,-19,-128,-57,19,-8,-7
-3,-3,-1,90,-10,-6,-10,-2
-5,-6,-11,-41,43,-8,-3,-5
5,11,17,13,-14,-28,9,4
8,6,4,43,41,71,5,4
-11,-6,1,31,-28,-30,-10,-10
-8,-3,-4,-97,-5,5,1,-3
-3,-12,-33,-76,-27,-26,-10,-4
14,15,30,18,47,26,21,11
10,15,14,94,12,33,10,10
-10,-13,-11,-90,-73,-39,-25,-16
-9,-8,-46,40,19,2,-8,-11
0,-2,4,15,10,-7,3,-3
3,6,9,41,70,-19,-9,1
0,-2,-19,-29,3,112,26,2
2,-1,10,37,-99,37,34,7
-3,-4,-12,-44,29,-38,-19,-3
-4,1,-2,-72,8,-26,-4,4
-7,-16,-25,-93,-40,-40,-8,-8
6,-3,-4,34,19,-5,-15,-1
-2,0,6,61,38,17,-5,1
-4,1,8,-44,-13,-31,2,-2
-6,-1,-10,-59,-30,2,-5,-16
-4,0,-2,17,33,-8,-3,-2
-4,-1,2,60,14,-33,-10,-6
5,0,3,-85,-73,-1,-4,3
-6,-13,-18,11,4,-8,-3,2
22,18,25,-16,4,12,30,33
-3,-6,-9,-43,-36,3,-13,-20
-14,-8,-1,51,58,-14,-14,-17
-3,-2,-6,-45,-128,-62,-26,-4
-8,-13,-22,-71,53,82,15,-3
4,3,3,-7,-1,-41,1,8
5,2,5,52,16,8,6,3
0,0,10,1,40,8,1,4
-3,-1,4,18,5,-2,-1,3
-7,-3,-2,12,5,-38,-9,-2
1,3,-10,17,-13,-23,-1,-5
-9,-5,-3,-33,26,103,2,-21
-2,-8,-36,-48,-59,-79,-5,0
6,6,13,97,21,-43,-5,8
1,0,37,-67,-11,58,7,-3
-2,-11,-19,-76,-55,-22,-9,-1
0,4,6,37,45,-15,-2,7
-8,3,-2,-1,3,-14,1,-10
-4,0,2,78,88,-52,-21,-12
2,-8,-8,-128,-122,71,15,0
-1,-2,-8,71,-38,-25,-8,0
-2,-5,1,4,4,-19,-3,-3
-3,2,7,-46,-3,7,1,4
-3,-2,-4,10,-25,-14,-14,-11
1,3,15,23,35,-17,-4,-6
1,3,10,46,-30,-39,-1,3
-5,-7,-22,-77,6,40,0,0
1,-6,2,-9,0,2,-1,-2
7,11,26,65,21,-15,11,12
-5,-6,-7,-24,-25,-15,-11,-6
-12,-12,-19,-23,15,-1,-19,-21
-4,-7,-6,-6,-28,-25,-7,-8
-5,-1,-4,-61,-9,41,2,0
-1,1,0,0,-21,-20,-1,3
5,8,15,53,51,-53,-7,9
1,7,13,67,-9,33,20,6
-1,3,20,127,127,36,8,-5
7,1,-21,-128,-128,-14,7,2
-25,-24,-34,-128,38,-29,-20,-22
6,2,7,85,32,-1,2,4
16,10,21,58,2,2,6,10
-4,0,5,31,30,-15,0,-2
-1,-1,-3,9,6,0,-3,-1
-5,-2,-7,-14,-1,2,-5,-5
-3,-2,3,-25,-25,-14,-2,-1
4,6,19,50,72,-90,-12,5
4,13,1,19,-25,127,43,11
-3,-5,-8,-47,-34,-5,-6,-6
-10,-10,-23,-104,-56,-30,-16,-15
-1,-6,5,29,-4,-19,-3,-6
-6,-8,-23,-68,-6,-24,-10,-1
-3,-2,-3,-31,-5,-3,0,1
2,1,4,11,12,9,6,2
4,-1,7,32,18,5,-2,3
3,3,14,30,-8,2,4,-7
2,3,5,-27,4,2,5,7
4,3,-47,35,21,9,1,6
-3,-3,-8,-20,33,-23,-10,-7
-5,-2,-4,31,-44,62,8,-1
14,14,16,-80,-128,2,36,28
12,7,14,127,34,-16,0,8
-24,-15,-2,31,60,-9,-26,-35
-25,-21,-58,-97,36,-27,-23,-21
-3,-9,-8,0,-46,-7,-9,0
4,1,0,-47,-31,5,4,8
7,10,21,30,18,9,9,7
3,7,14,75,33,11,10,6
0,-3,-9,13,1,0,1,-1
-2,2,5,23,23,-19,-6,-1
-2,-2,-15,4,-13,-55,-2,1
1,0,1,23,36,127,12,2
-1,-5,-16,-40,-26,-14,10,0
0,-5,-10,-13,-8,24,0,11
17,19,29,74,50,22,13,12
-16,-12,-26,-107,-94,-50,-24,-32
-19,-15,-16,-52,-55,-34,-23,-29
-2,-1,13,75,10,-3,0,-3
0,-3,-6,-13,59,2,1,2
10,13,15,36,51,14,11,11
1,-1,4,23,-29,-1,1,1
-9,-10,-24,-104,-62,-11,-6,-2
-2,-2,-6,-22,7,-1,-1,-2
-3,1,5,6,-16,-5,1,-3
-5,-8,-18,-105,-38,-1,-7,-6
1,0,4,97,6,13,7,-1
-3,4,12,4,31,-33,-12,-4
0,1,7,89,69,64,13,0
-2,-5,-12,-106,-24,31,8,0
2,-2,11,34,-7,-20,-1,0
-2,3,25,127,49,17,1,0
2,2,3,-89,-67,-23,-1,-1
-10,-14,-42,-128,-42,-9,-16,-7
-2,-7,-23,-14,-18,-2,-6,-1
-3,-1,3,0,19,-40,-8,4
7,6,16,32,7,18,7,14
12,9,4,48,45,-17,16,13
-11,5,10,69,31,59,-3,-13
-24,-30,-46,-128,-128,-38,-32,-28
4,0,-7,-19,4,-26,-11,1
1,1,6,40,32,0,2,3
8,6,10,34,54,-2,13,7
1,-7,-19,-13,3,-15,-10,3
-4,-3,-3,-3,-8,-95,-17,-1
-7,2,7,-16,18,27,1,-5
-1,0,6,-31,-24,30,9,-7
-2,-1,5,33,-32,-24,-7,-3
0,5,7,17,73,-25,-2,2
8,6,14,25,-13,40,13,10
-1,-9,-30,6,-8,-63,-9,-2
-2,-1,0,46,32,61,-5,-5
0,3,20,52,31,17,8,6
-5,-4,-10,-81,-57,-45,-16,-6
0,4,-9,-103,-31,21,6,1
-2,-10,4,40,44,9,-11,-12
0,4,-9,-103,-31,21,6,1
-2,-10,4,40,44,9,-11,-12
6,6,14,14,28,37,-4,3
-3,-3,-6,-3,-17,18,4,-1
