Channel_1,Channel_2,Channel_3,Channel_4,Channel_5,Channel_6,Channel_7,Channel_8
35,20,34,36,62,16,17,8
41,9,18,-56,-58,-44,-8,7
-1,34,-114,50,14,-42,-33,-32
-30,-91,-101,-128,-50,-70,-31,-20
-35,20,107,-99,-36,19,-12,-25
-92,-44,-73,73,127,-23,-27,-50
14,-1,12,61,-19,-35,15,29
98,68,81,23,-42,56,26,26
-56,-4,30,47,-27,-128,-28,13
-32,-121,-2,-18,-40,-100,-16,-8
63,62,14,-26,57,42,19,33
4,83,19,-39,-19,84,17,-28
-6,-46,-12,-22,127,14,-22,-38
-76,46,86,-23,-78,-49,-43,-51
-9,-4,-93,33,21,-37,-24,-19
65,52,26,32,-68,-66,-19,22
-101,-77,-71,-85,-51,-14,-28,-17
0,51,44,37,127,127,20,-24
-16,44,17,-40,-128,-10,30,19
-14,-21,-84,-54,72,-16,-31,-29
55,44,24,-10,-79,-84,-16,22
21,107,62,72,27,115,22,19
47,42,-69,-41,-36,-30,-2,20
-70,-100,-68,-49,-36,-19,-46,-58
106,127,98,74,17,-17,48,73
31,1,-60,-53,-26,14,19,27
-34,-87,-37,-72,-23,-3,-17,-44
-6,-69,12,72,71,-128,-45,-25
8,12,60,12,-9,127,32,13
5,-31,-100,-62,-24,66,-5,10
-1,-53,97,8,-34,-128,-37,-16
-19,39,12,15,9,28,-22,-16
48,57,5,1,41,127,53,30
-37,0,-11,-49,-81,-9,9,-12
52,-54,-11,71,4,-72,-12,17
0,-40,42,-11,2,3,5,-11
-13,105,56,-26,79,127,15,-16
27,72,-52,-96,-89,-24,-5,1
-94,-63,-20,10,-13,-32,-31,-51
19,37,-10,-71,-7,-64,-26,-10
53,63,46,44,1,-57,-5,35
-22,27,127,26,-19,11,20,27
15,-79,-128,0,-20,-103,-38,-15
88,31,80,30,18,-72,7,24
-59,-24,-16,-15,10,127,34,-2
-45,-14,67,6,13,-42,-18,-20
-9,-128,-19,61,127,127,58,21
10,127,78,52,41,77,58,49
127,127,108,2,-26,-10,12,21
-128,-128,-128,-52,-29,0,-39,-75
-51,-45,47,2,123,-21,-22,-43
21,-28,-55,3,4,-2,-5,-4
-24,-15,-45,-26,-67,-18,-14,4
-49,-62,-12,46,2,-61,-20,-13
28,107,58,46,8,21,30,19
118,55,45,52,16,37,3,43
-12,17,-25,14,103,127,25,47
-82,13,21,-28,-5,99,10,-37
-7,-50,-40,-83,-13,-10,-8,-33
-41,-22,0,19,-59,-21,-13,-9
30,-29,-24,-1,19,22,12,15
26,-61,-31,20,-48,-25,-2,15
44,33,37,4,54,24,4,25
-35,70,52,-17,-12,23,0,-21
1,7,-113,-23,-14,-21,-12,-4
0,1,43,-2,-33,-54,-31,-9
17,-80,-12,91,109,46,26,39
-10,19,63,-67,-92,23,17,0
61,127,0,-8,81,127,31,26
-24,-48,-79,-37,-33,-61,-25,-30
-36,-89,-38,-7,28,-1,-41,-31
19,-7,-1,46,40,-5,17,18
-3,46,83,-36,-48,-26,8,15
-10,-28,28,35,73,64,18,6
17,-32,-15,58,-17,1,-1,1
5,-14,12,106,116,-114,-28,6
3,73,13,-128,-128,127,39,12
-15,31,-16,-34,-31,-63,-42,-25
-10,-44,-120,15,50,94,2,-15
50,10,-6,-33,-6,54,-5,-13
14,-12,-4,18,-47,-35,-12,-28
-81,-9,19,15,25,-19,-6,-12
62,23,2,4,-2,-1,4,18
-30,-56,-17,18,27,8,3,2
5,-9,17,34,-27,4,8,3
-1,-42,-47,-31,4,-31,-1,3
37,-32,13,28,-1,41,11,29
34,126,50,-29,42,-54,-15,16
-55,-5,-69,-77,-15,13,-12,-69
-43,-31,-18,-38,-70,57,-10,-33
-12,-31,-14,9,38,-9,4,4
8,-16,9,63,-9,-3,1,9
-1,-27,0,21,38,-17,-10,-6
-5,-52,-17,16,63,6,7,2
15,-128,40,70,-96,-30,-20,12
111,127,47,82,127,-10,11,65
94,127,68,-106,-84,17,55,47
-128,-91,-48,-82,-92,-63,-34,-123
-89,-128,-128,-83,-10,-64,-66,-93
14,-43,26,-74,-33,-45,-14,6
28,-6,55,41,-6,-6,14,30
15,-34,11,67,97,26,24,29
15,38,39,58,-49,-6,-1,23
22,99,55,9,31,47,16,9
10,-13,3,-5,69,-110,-47,-19
-54,-36,-83,-39,12,9,27,7
-3,-69,-7,13,41,44,0,7
2,106,44,52,2,1,24,11
10,79,9,2,-47,-47,-24,-22
8,-12,-22,-45,-11,15,-14,-15
-5,-30,45,2,-5,-15,-18,-14
-16,-16,-22,-10,-13,-35,-14,-7
8,-44,-21,27,-61,-11,-27,0
57,-24,-88,25,127,127,59,35
-73,72,115,-4,-98,43,50,-1
-53,16,-5,-68,-48,-61,-20,-5
59,75,43,89,-45,48,13,-7
-6,-55,-26,-53,-1,-36,-39,-45
-66,-80,-67,-106,-67,-43,-42,-36
-1,-12,34,2,12,-6,-10,-7
21,-2,25,13,19,6,12,13
16,-13,33,34,17,17,15,18
8,3,11,15,9,4,8,11
-5,0,10,26,24,27,-1,5
51,18,5,59,14,85,36,33
25,41,5,-2,43,2,11,2
-84,26,-48,-15,-7,0,-32,-59
-5,-49,-64,-128,-28,-128,-49,-4
14,-34,-51,-13,-65,32,22,13
-2,-5,39,27,3,5,4,-7
12,31,63,13,13,9,-8,-11
42,-128,-10,46,-33,-128,-47,17
46,127,127,95,127,127,97,84
26,127,15,81,95,70,90,61
-128,-128,-128,-128,-103,-91,-110,-128
-38,-128,-127,-128,-128,-115,-91,-53
19,-66,5,19,-10,-15,-9,14
23,-9,22,63,16,5,12,25
18,51,87,1,-13,-41,7,22
52,95,117,45,30,42,27,23
15,-6,-128,-11,12,-7,13,1
-51,-22,-36,-27,-27,-5,-8,-11
-2,-4,-17,-10,-18,-18,-13,2
15,3,1,39,122,56,20,6
-55,-27,4,21,-9,3,10,-3
-2,26,8,-3,-26,39,-2,-6
19,27,3,-22,59,95,14,18
28,8,-5,-64,-126,-67,-11,17
-33,-11,-27,-26,-10,46,5,-25
-32,-17,-50,30,42,-17,-22,-55
35,-8,31,40,-21,-19,-6,-6
2,-28,-25,-42,-54,-34,-24,2
-52,-26,10,15,87,31,22,10
30,-69,-38,30,-35,-128,-32,2
37,97,97,56,-26,-8,42,48
19,127,127,8,57,127,67,31
21,35,-8,33,75,-50,-14,-30
-63,-115,-48,51,-22,-88,-30,-31
54,-45,-11,-127,-118,-41,-26,-20
44,-25,-25,-45,-59,-11,-8,-22
-33,-62,20,-19,21,11,-14,-54
15,21,-7,22,91,52,8,11
23,66,27,11,-8,-9,5,28
3,-2,16,40,42,-3,-3,11
5,-32,-12,51,54,58,25,20
7,31,18,-23,-20,-43,5,5
2,61,18,-7,-16,41,-1,-8
9,-32,-60,-4,98,127,28,12
-26,-47,-1,-21,-70,20,0,-6
-10,-2,4,11,14,9,-4,-9
17,-48,-14,49,55,-8,-5,-4
-60,11,7,2,-40,-7,1,-7
17,67,12,13,77,-86,-8,17
61,49,46,-76,-82,-10,4,10
-31,-64,-106,-112,-20,-25,-16,-6
-65,-56,-6,11,16,13,-17,-30
6,21,-10,55,-43,-128,-33,-17
56,81,50,12,-32,127,34,26
27,-86,-54,-27,-47,40,16,-9
-47,48,19,80,127,-128,-20,-7
43,112,53,3,-117,-17,7,4
-27,-128,-63,16,100,-53,-24,-4
4,-94,-1,-15,-1,-2,10,49
32,64,34,-91,-52,-13,13,4
38,95,7,-8,-96,-65,-19,-21
-26,-4,0,-1,63,47,-26,-32
-19,-56,-128,-30,-46,-80,-30,-11
6,-8,7,48,43,-69,-4,12
17,0,20,39,-45,85,34,26
-8,-38,-8,-36,20,127,30,13
9,41,28,17,1,-15,0,-11
2,21,-7,-8,12,29,5,-3
-7,-26,-11,8,16,-31,-6,3
57,63,27,89,23,-8,3,19
-40,-1,-45,-107,-67,81,9,-9
-27,-20,-8,-30,-26,-17,-16,-35
-52,-57,-38,7,-4,-4,-2,1
63,1,49,7,-5,9,-11,5
-7,61,48,10,-15,-34,2,1
-97,-42,-36,1,42,-24,-25,-22
-14,-45,-73,-56,-29,-7,-1,-5
21,38,15,6,-15,19,-4,10
17,20,-5,15,18,2,1,-13
-1,-12,21,36,3,-4,1,-2
0,-32,-68,-32,10,-17,-16,-1
2,-21,19,-17,-50,16,21,11
41,-8,25,19,-54,-86,-5,25
-17,-4,28,-28,-25,43,14,4
-27,65,60,5,15,-13,-12,-57
-37,33,5,-5,-5,-3,-3,6
75,-21,-21,-17,-51,-14,-24,10
-67,-46,-105,-13,20,-67,-51,-71
-11,-42,24,6,-55,42,23,-1
24,6,33,-7,20,127,53,14
13,55,4,2,18,-37,-13,-2
15,-30,-22,-35,0,-32,-7,16
32,-44,-15,-28,7,-17,3,20
-73,-65,-9,0,-13,-34,-12,-29
18,117,106,52,95,26,12,-5
35,101,-24,66,-51,-40,-13,7
-15,-2,-52,-99,-22,-28,-19,-4
24,-128,-118,33,-13,14,6,10
-55,-14,25,13,44,14,0,0
-30,-16,3,-128,-91,-33,-19,4
2,4,-39,45,28,-14,2,-4
-37,-15,41,33,-30,-5,8,-1
26,41,24,2,64,91,4,3
25,19,-46,18,-41,-128,-30,1
53,-39,-5,-13,-20,4,38,8
-42,52,33,36,49,80,13,11
-28,-18,-5,10,-31,-28,-25,-40
-20,-30,-58,-55,-21,-15,-4,19
24,-25,-38,1,-23,-25,-9,-1
1,28,49,3,12,-37,-6,-9
-20,7,-20,11,11,-11,-14,-2
9,-25,-3,2,32,44,19,12
-2,16,10,-3,-18,17,-7,-15
25,2,19,-22,-7,-24,-17,-9
-39,-9,-8,26,-8,-13,-15,-7
-16,-13,-34,-3,3,-16,1,-4
-4,-22,4,8,9,3,9,6
-24,-106,-10,10,-8,7,8,9
25,28,10,44,-1,-29,-9,21
121,127,122,76,33,-58,-4,48
68,-36,-41,6,67,112,29,-8
-114,-59,-43,-128,-62,-41,-28,-77
-128,-35,77,-56,-128,-70,-44,-24
54,18,18,57,52,-13,-9,-7
43,-38,-66,4,-53,9,20,23
11,-38,-104,-56,10,-5,-1,6
11,7,48,19,-7,-6,-3,6
1,-5,27,56,59,5,1,5
6,5,-7,45,15,-20,-5,15
-35,3,-15,-36,31,66,15,-9
9,9,7,12,-59,-112,0,-4
-3,-3,-80,-7,3,39,11,1
-15,48,101,-4,0,-20,-22,-15
-4,38,-7,-59,-10,-16,-10,-2
-9,-32,-57,-26,-16,-19,-10,0
-10,-14,-12,82,-4,6,13,3
-3,-26,-10,-29,-9,-27,1,20
-20,-60,-18,-3,-11,-101,-6,2
81,10,27,45,87,127,29,30
53,127,127,24,-24,35,22,1
-128,-39,-111,-11,74,-67,-39,-36
-107,-32,6,29,-80,-16,-17,-51
18,3,27,-13,9,12,-7,-2
59,1,15,-22,-6,-15,2,11
-35,-21,-8,3,16,1,2,13
19,3,6,0,10,-16,0,5
16,-7,6,17,5,11,3,0
1,-35,34,38,26,8,-1,4
-10,-12,-27,34,24,-93,-10,3
26,83,-45,88,6,-92,20,28
14,11,107,-52,103,13,32,13
-19,-50,-92,-40,-128,3,-39,-36
-24,-33,-2,-38,-120,-50,-13,-14
-22,-72,7,82,90,-7,-11,-11
29,30,62,-70,-58,-84,-30,-12
31,103,24,8,-5,26,16,4
-48,-65,-68,-10,53,-128,-30,-6
-78,-4,11,10,-63,127,43,8
-15,-21,13,15,43,-5,10,11
-50,-20,10,-10,7,-11,3,-18
63,43,-7,11,19,-12,3,3
42,-17,-32,30,26,-1,-8,-3
9,-14,-22,-26,51,72,-13,0
-21,-69,-11,15,33,28,2,-6
15,-12,-9,8,-86,-18,3,32
27,56,-24,32,12,12,13,24
16,-11,-8,-37,9,12,-2,-6
-43,-33,-109,-23,-12,-16,-20,-43
-6,36,54,0,27,-29,-15,-2
45,40,40,-38,-73,-7,4,16
-31,25,20,2,7,-21,9,14
29,1,-7,8,-13,18,6,-7
-101,-25,-31,2,24,-4,-11,-7
-7,-53,31,12,-14,-11,-11,-18
-28,-8,17,23,3,-38,-2,-4
56,92,9,49,127,59,32,22
-3,-48,-64,40,-41,-64,-15,-5
-6,-14,-72,-128,-71,103,11,12
25,-48,-12,-68,-26,-20,-8,-2
-17,-29,16,-9,-12,-4,7,-3
-22,58,31,68,53,-1,2,-4
9,46,3,14,-27,-3,-1,25
-4,-26,24,-19,53,0,-10,14
69,-2,4,28,-75,-48,5,-8
-68,-27,-6,25,8,113,7,-35
-13,-37,-26,-6,55,-17,-29,-60
-10,34,16,-45,-58,-43,-16,0
-2,-8,-6,-24,24,5,8,13
15,18,1,2,6,-11,-15,12
28,1,-53,1,5,8,27,27
-24,-16,54,34,33,-17,-5,9
-34,-85,-39,70,14,7,7,12
11,49,27,-59,-32,5,9,-10
91,127,125,6,94,19,1,9
-51,-66,-70,-48,-114,-46,-37,-40
-19,-15,5,-17,34,-37,-6,-17
15,9,-2,-9,13,9,8,15
41,-28,-55,41,25,47,8,39
-9,1,19,27,-8,15,20,3
-61,-22,15,-22,45,-9,-7,-40
-22,-2,31,-28,-124,-11,6,5
24,33,16,0,-9,-24,-10,14
7,17,-30,-18,82,23,-22,-17
-4,-4,13,12,-14,-10,-3,1
2,-4,-3,0,-2,10,16,4
-5,-46,-21,6,6,5,3,2
-11,-65,-16,16,15,-38,13,13
23,81,86,41,-3,-96,-33,27
10,87,63,34,57,127,46,6
-13,-32,-102,14,-17,-43,9,-13
-4,-21,-36,25,-11,15,-11,-30
14,-65,-35,-93,-103,-37,-20,-7
-47,-42,-10,-95,-70,-2,2,23
-14,-20,-1,32,-22,-13,-5,-19
-50,45,29,42,55,-23,-26,-32
9,40,44,3,-34,1,3,2
20,-13,-75,35,59,39,21,13
32,12,12,-63,-56,13,3,20
-13,-48,37,30,74,1,17,18
15,10,34,50,-53,-47,-4,-7
45,55,16,40,13,-60,-11,-1
7,-12,-90,-44,-26,51,7,9
-20,-20,-2,-20,31,-5,-5,-3
-3,-5,37,-2,-58,-15,-2,-10
-16,0,6,0,22,18,1,-6
1,-22,-33,18,10,-36,-8,1
-5,-32,-18,12,21,14,19,32
41,36,37,8,29,16,16,36
-7,67,71,44,-8,-14,-23,-27
-24,-42,-128,-31,-13,-11,-14,-35
-28,-29,-13,-54,-7,29,-15,-20
-19,0,14,-6,-21,-62,-20,0
16,-9,34,19,64,0,10,8
-40,-13,16,30,5,95,6,5
-14,-34,-62,58,60,66,29,7
64,109,96,5,-28,-6,11,28
50,20,-68,-84,-94,-51,-15,12
-53,-57,-40,-45,67,-39,-38,-62
-66,-30,-24,14,-33,32,0,-13
50,-6,45,-1,-5,-4,3,11
49,29,15,19,9,12,-4,25
-112,25,53,28,38,-26,-5,-11
36,-23,-58,14,-77,-128,-25,-6
29,-32,-14,47,127,127,76,37
-11,31,-11,4,-13,14,35,-2
3,62,69,-128,-45,-49,-21,-38
-25,-80,-9,62,11,-27,-27,-29
-5,-41,-39,-36,-49,-31,-13,-2
-27,40,26,-16,12,2,-2,-5
33,15,31,2,4,8,3,14
-63,-30,6,5,4,-1,-3,-5
2,-9,-40,39,54,-17,-7,-3
-9,-5,17,10,-90,-127,-30,-7
62,83,0,-11,61,127,42,40
21,0,-45,-4,11,9,18,8
-11,-24,1,-45,-54,-39,-23,-24
2,-36,5,32,28,-11,-3,1
-67,7,15,-7,57,-14,-14,-27
24,2,-22,-7,-33,-3,-3,4
0,-21,0,12,-42,-15,1,-5
-47,9,20,39,33,99,3,9
30,9,19,25,55,-56,-1,46
55,20,-38,-42,-3,38,19,-3
-53,-14,-90,-19,-4,-7,-24,-49
-46,-60,-20,-28,41,-21,-25,-45
18,-8,25,30,-56,-26,-2,10
16,60,55,18,25,-8,4,8
25,-20,-105,-25,17,17,4,12
19,-28,5,16,4,20,0,4
-30,-27,28,24,1,-87,-17,3
41,93,75,12,-26,-2,19,22
17,50,41,127,107,127,28,7
-28,-19,-7,-57,-58,-26,-25,-25
-11,-7,-3,-95,-79,-24,-19,-13
1,-12,3,-40,-41,-24,-21,-9
49,-39,-49,44,-42,-119,-9,65
-46,-22,-52,52,107,127,46,-12
-61,-72,-48,1,30,41,-16,-35
26,43,23,-6,-5,-16,5,-16
10,112,125,-21,-31,-58,4,19
38,-99,-87,-34,36,-43,-3,7
-10,9,9,88,13,-21,0,22
-29,88,46,-6,-81,36,16,13
-14,-24,-34,-123,-68,-39,-11,1
46,-37,-34,7,-64,-35,-11,2
-68,-27,30,7,57,39,1,-1
38,5,29,35,11,38,27,4
25,-36,4,21,56,1,-20,3
6,46,-128,-41,-13,-7,-13,-31
-56,-47,39,-42,-57,-111,-31,-37
4,-11,13,27,4,-22,-15,5
23,-12,15,29,16,127,56,29
17,-11,7,-9,14,-13,18,21
-5,19,12,-17,-128,-40,-4,-24
19,7,-50,-30,27,-34,-16,-16
41,-40,-21,-8,-3,-32,-13,5
-20,-18,45,47,69,-8,0,8
-68,91,34,21,8,-5,14,-10
-15,-29,-69,-25,16,4,-16,-25
19,-8,-23,5,-18,-6,-12,-1
11,-29,-30,-39,58,-5,-1,5
38,46,45,-8,44,39,-3,19
10,-13,14,33,-70,106,35,3
-74,-58,-51,-26,-41,-39,-9,-14
42,-10,4,13,2,-24,-6,8
-44,-28,-18,52,49,-13,4,-23
-8,7,37,0,22,-37,-23,-19
-17,111,81,4,21,70,15,5
35,-58,-49,-22,5,-36,8,10
-32,-38,-128,-50,-54,-36,-18,-9
10,-21,-24,-106,-26,22,-8,16
-5,-11,20,36,-2,-14,3,-16
-1,88,60,52,30,23,5,5
42,-15,-65,-18,-45,-80,-9,4
-2,-34,-23,27,16,11,-5,-7
-6,-32,-2,-15,-1,-11,13,15
-43,-5,20,-1,14,28,2,0
-68,-33,1,-46,-38,-109,-10,-25
80,54,47,23,-21,43,9,4
24,60,40,-1,-3,11,-7,7
-35,-45,-94,30,30,-50,-21,-15
-3,-82,-26,-19,-57,49,7,9
26,24,22,74,6,8,2,-4
44,117,69,-53,10,102,7,2
-56,-34,-14,-3,41,-36,-23,-15
13,-17,-29,-128,-101,-11,-11,-31
7,-22,-6,18,-6,-28,-8,1
-7,-70,1,47,14,23,-7,1
-3,22,11,4,30,21,7,7
28,116,100,38,12,19,36,19
-1,-35,-34,-21,17,-2,4,5
-11,-16,2,-34,14,18,-6,4
-11,-12,-15,12,-21,-21,-22,-10
-5,-6,18,45,23,-33,14,-5
20,-11,-15,23,-20,-8,3,6
24,12,82,-7,-21,-3,0,5
-25,0,-80,-60,-2,9,0,0
-54,-21,-18,32,-8,-7,-4,-4
-1,15,78,29,-10,-31,-6,8
25,8,-68,-54,-14,-14,-2,8
-15,-6,18,-1,-57,-25,-8,-18
49,36,6,-5,23,-4,7,0
-36,6,-9,3,14,3,-15,-21
-12,-26,-26,6,40,0,1,-6
17,-36,-18,6,15,-35,8,9
46,-3,15,23,-26,11,11,34
22,-19,35,24,-18,5,12,19
-12,74,57,7,29,54,-11,-30
33,14,-86,-69,31,-4,3,-12
-72,-47,-9,-7,-41,46,-6,-12
10,-20,-9,0,-56,-25,0,13
3,-6,33,1,42,-34,-2,1
0,-16,16,8,-19,1,5,2
15,19,-47,-13,-20,-1,-9,-5
-7,27,20,-15,-38,-46,-8,-2
-4,-18,-8,29,29,70,2,2
24,-8,10,10,30,-17,4,18
-16,-41,4,-12,37,0,-18,-5
22,24,38,64,-1,10,30,0
-44,33,-8,-39,-66,-17,-6,-27
-28,30,12,-11,-8,-32,-19,-18
6,-36,-128,-46,-63,-40,-19,-7
-6,-44,31,-22,61,-19,-24,-17
9,3,25,48,15,-8,-8,0
6,-8,-25,-33,10,6,7,6
-6,-6,13,12,-33,-3,1,4
34,-20,6,23,60,-18,10,20
2,23,16,6,-21,3,17,16
-20,32,53,16,15,7,10,5
-11,-14,-99,46,0,10,-23,-37
20,7,6,-51,35,25,-1,-2
21,22,27,-16,-14,-63,-13,1
-64,-11,6,-6,-36,97,11,3
-12,-49,-29,97,2,20,11,5
22,42,39,-78,-54,3,13,12
36,37,-62,-48,3,-15,-15,3
1,-12,-51,-14,51,-40,-27,-9
7,16,71,30,-64,38,-2,-2
7,6,81,14,-22,-21,13,14
40,-21,-39,32,16,9,7,18
-73,-64,-39,-24,-1,-15,-19,-37
-4,8,-14,7,63,3,1,-2
8,62,47,3,-24,-16,10,12
-1,80,55,2,-37,63,18,-23
-10,-33,-110,-44,16,26,-9,-16
-4,-45,-36,-2,9,-19,-24,0
3,-25,0,-29,-8,-9,-8,6
-12,-35,-1,-17,21,7,0,-13
16,25,54,108,44,-45,-9,2
53,76,79,45,-24,5,39,39
-12,-11,-45,-54,-128,-10,3,-2
-3,-10,-50,-128,-98,-37,-17,-10
41,-37,11,23,44,-37,-5,7
-48,53,42,51,-1,-108,-4,7
-18,81,40,14,127,127,34,-16
-27,-125,-128,-90,-128,-30,-37,-37
17,-30,32,10,-36,-34,-14,-14
-15,-42,6,-51,22,-16,-21,-15
1,26,26,66,32,-7,-6,3
5,12,-3,12,-8,-48,5,22
30,20,15,10,53,94,25,34
11,46,1,11,-30,6,10,-14
-9,-34,-18,22,28,-5,-12,-32
49,-45,-2,36,77,-4,-8,8
4,32,-1,-61,-66,3,-1,10
-63,48,-12,23,-48,-27,0,6
-1,-6,2,-20,-52,-128,-45,-23
13,-1,37,19,4,15,27,20
20,1,35,-32,21,61,16,18
-4,-13,-58,3,2,-6,7,-6
-19,-29,-51,-15,-11,-11,-10,-10
14,-59,-30,-21,-52,5,-13,-13
-2,-31,28,71,73,-128,-53,-9
64,106,78,-7,-32,77,43,32
13,37,-33,-39,-99,-3,14,3
-128,-27,-37,46,89,6,-16,-44
14,-77,29,-29,-8,-35,-26,-13
16,3,-30,-32,-17,19,-2,0
30,63,88,21,-14,41,8,-4
-14,-23,-37,5,-1,-76,-14,0
1,-25,-112,-24,-42,-11,7,11
20,17,27,55,15,36,5,18
-3,-65,-82,-42,-13,82,-5,-1
11,32,11,-43,-11,-30,17,-23
-46,28,45,18,-47,4,-13,-17
-14,-27,52,29,59,-12,-4,5
31,1,-14,-2,6,-11,-7,14
51,21,17,36,-43,-128,-18,27
-49,30,37,-14,9,54,42,4
28,54,70,70,31,-26,-17,-64
-18,1,-66,-70,-74,-40,-28,-10
41,-13,16,-42,11,6,1,13
8,-13,33,33,-20,39,18,20
-15,-113,-128,-35,30,-44,-13,-3
-8,-15,72,58,15,51,19,-20
42,59,55,21,10,9,14,5
-72,33,24,-13,-10,-31,-32,-21
50,3,-5,-68,-43,-27,-14,11
6,1,-5,39,15,70,5,19
-32,-6,-19,17,90,-77,-22,-37
17,-24,35,18,-59,-33,13,6
-17,-20,-78,22,66,31,11,11
30,70,45,-14,-46,-10,32,19
-18,-53,-5,-48,20,-29,-26,-14
-37,-35,21,43,64,-8,-25,-31
19,22,24,-10,-22,-56,-20,0
34,34,-38,-68,-21,-20,1,11
-40,-101,-45,2,-29,-84,-25,-36
-60,-24,-54,11,53,16,6,-26
61,72,78,11,-4,-8,24,14
17,76,79,14,-18,-106,-15,16
-20,-60,23,-30,51,127,-22,-9
21,12,-128,-25,43,42,1,12
-21,52,7,-13,-9,43,28,16
11,-1,9,-6,-2,4,-5,-2
-4,-83,8,10,41,-3,-4,-8
-30,-8,58,65,60,17,7,5
8,92,106,-40,-56,-18,1,5
7,-100,-128,-51,-29,-56,-45,-29
-18,-107,16,-28,127,127,21,6
3,93,45,21,64,9,28,-8
40,110,127,-8,-7,-128,-39,-24
-48,-44,-128,-44,-86,-128,-47,-34
-31,-44,1,11,-23,24,35,0
13,-54,28,63,12,-51,-19,-3
2,77,5,30,28,-128,-28,11
20,10,-26,17,-14,51,22,2
18,-61,-35,9,17,-54,-23,-17
58,27,33,-41,-128,-65,-14,-3
24,3,-51,-31,81,127,59,36
-39,-23,21,27,45,36,-17,-4
-106,-112,-26,43,40,-8,-17,-25
21,35,29,20,-44,-20,-13,-9
49,84,63,51,-76,-35,-6,16
77,52,-1,20,127,127,27,13
-39,-40,-22,-16,-102,-65,-3,-20
-61,-4,-8,30,35,48,-7,-26
19,45,77,10,127,97,8,4
17,-32,-16,-16,-74,-30,12,23
-10,-67,-120,-11,-5,21,6,-9
13,73,88,55,-26,-5,8,20
38,12,-52,-61,97,127,4,16
-40,-26,-35,-37,-23,8,18,-20
50,-1,29,-8,-7,-27,-3,-6
0,70,68,45,53,-128,-59,-53
-56,-128,-63,-51,-128,108,37,-17
-59,3,-55,21,55,-55,15,12
82,126,82,-5,-37,7,6,22
-40,-46,-128,-34,30,-46,-38,-24
-14,-45,26,13,-22,-7,-6,0
-24,8,59,104,51,-73,-23,12
10,3,19,-76,-12,-86,34,24
17,-18,19,-24,-89,127,29,-14
20,73,72,1,23,-5,5,-7
2,4,-116,-8,-52,-116,-34,6
0,-53,31,-9,-9,54,13,12
-32,-33,-16,-5,104,-53,-17,-52
54,39,37,64,127,67,12,-1
-4,48,-8,50,-5,-10,6,9
-16,-14,56,-19,3,3,12,29
7,23,30,-8,-11,-16,-18,-4
-40,-12,47,23,-71,-34,-9,-22
-41,-97,-128,6,51,-24,-14,-10
-23,55,24,-39,-128,-128,-57,-14
44,87,64,21,127,127,96,27
51,-16,-33,-40,-59,8,7,24
-11,-23,32,2,15,-38,0,1
-33,-51,-12,36,30,-18,-17,-23
-9,42,96,-71,3,7,-12,9
-25,21,38,-4,20,4,-4,-9
60,-60,-108,-9,-35,-55,-44,-30
-8,-25,20,56,19,-128,-27,0
27,31,15,45,13,127,56,-5
17,36,-28,-18,83,-15,3,12
-40,-42,127,5,-30,-25,-22,-13
-23,-34,-6,-59,-106,-27,-5,6
25,-10,-30,-3,-12,0,-10,7
18,54,44,18,-9,-59,-13,4
-6,25,12,21,-48,116,41,32
-5,-95,-128,0,73,-77,-11,1
-57,44,59,37,10,-42,42,-23
-28,85,57,-69,-62,-96,-37,-40
7,-57,-12,-26,-25,-47,-25,-30
7,-59,-53,20,9,-29,-10,3
30,8,17,15,-23,6,1,21
-5,-59,-10,62,21,-15,-8,11
-20,39,61,-42,-73,-109,-50,-9
26,47,-18,-17,98,127,92,23
17,24,37,36,-15,-94,-1,-13
-21,-58,-89,-35,-5,-47,-25,-19
37,-29,-14,13,35,-8,-6,8
-36,-41,29,12,-24,-16,3,1
-40,13,-12,19,2,-40,-2,3
24,38,42,38,1,-11,-10,0
6,-102,3,63,18,49,14,12
30,100,88,5,-14,38,18,11
64,127,83,-40,46,50,-14,-9
-73,-128,-128,-65,-75,-81,-51,-53
-2,-45,25,-8,-8,46,11,7
23,-49,-6,4,-16,47,7,20
-27,10,57,89,112,-128,-55,-37
-63,39,-22,-88,-70,94,73,30
55,-80,-124,56,12,-16,-3,-5
3,26,14,-49,-28,-35,-8,-2
39,61,87,41,-6,6,5,1
-37,-55,22,-46,43,-32,-4,11
18,16,-67,33,29,-14,-6,-1
-37,49,34,15,57,-2,-10,-8
30,-106,-67,5,-127,-128,-56,-19
-67,16,2,-35,17,127,36,5
54,99,75,10,22,119,53,40
30,-36,-40,-82,-88,-49,-32,7
-33,-37,-2,-31,9,-83,-23,-34
7,-6,-5,53,116,127,25,-3
-56,3,0,11,-37,-32,1,-1
-11,-25,-13,-28,-15,-28,-27,-40
11,-6,-1,16,36,-8,-9,-14
9,-10,4,30,-17,-28,4,8
-14,-39,30,13,0,-128,-43,5
28,-12,9,-7,-72,-46,70,30
39,74,-8,-22,31,-8,-11,-12
-2,109,2,-58,-15,-26,-25,-20
-15,-36,1,3,73,-11,-21,-14
2,9,-45,56,25,15,12,10
9,-100,-33,-128,-126,-19,-15,5
-12,29,25,-70,-82,-33,-17,4
19,50,86,78,102,-4,11,4
-10,-87,17,-38,82,127,11,-17
13,23,-14,18,-48,-3,17,20
-34,74,24,7,-8,-58,-20,-31
-85,18,-41,30,124,127,5,-16
15,-128,-88,-12,-11,15,9,13
-16,2,56,26,-114,-40,-15,1
20,74,10,-43,-65,-92,-18,-18
28,-2,15,-25,-32,59,-22,-6
7,-39,17,24,76,67,24,8
-32,-25,23,22,-4,-8,-12,-10
51,37,-22,26,57,-19,18,48
-2,1,-5,24,-91,-128,-14,3
-21,-18,-65,-82,-38,127,22,-19
-88,-54,-14,3,-14,2,-17,-29
-1,-88,38,21,3,-2,-12,2
17,67,-28,29,56,33,11,27
-21,127,12,25,-89,-36,20,29
3,32,-4,-15,60,81,2,-14
-15,-76,-68,-111,-38,3,-12,-34
4,-29,-2,-15,-1,-23,-13,-30
24,-22,-7,-53,-56,-24,-13,0
-23,-35,-5,83,127,-70,-4,6
-20,-10,29,-16,-81,-128,-17,15
38,59,43,-11,-53,98,31,24
-23,-4,-6,33,0,-59,-31,-28
22,7,67,-77,13,42,5,5
-103,-128,-128,-26,-115,-86,-48,-17
18,37,-40,-19,127,127,72,22
87,127,83,30,16,-67,-7,3
-128,-97,1,-22,-38,-76,-68,-65
-16,-94,-67,-61,-72,-32,-1,-2
50,27,42,-8,43,-20,2,10
63,48,33,63,83,9,15,31
-53,-80,-34,-40,73,-20,-25,-4
-24,55,78,17,-50,-24,37,-8
-22,28,-59,-82,26,-13,-2,-17
-10,-45,-74,-7,14,-15,-17,-8
19,-19,9,12,-30,-7,-1,12
-7,-90,-28,57,-23,-20,-18,6
21,78,77,57,31,59,41,28
-16,127,42,-52,-56,-128,-51,-14
5,-5,-52,-57,-16,127,17,-7
-16,-71,40,1,54,-4,-5,5
18,-28,-6,23,20,-21,-1,22
28,-8,29,39,10,3,-6,-6
-59,-44,56,49,-47,40,-3,-41
7,-14,-56,-57,53,127,26,4
-21,71,-59,-24,43,-64,-3,11
51,67,-37,-14,-23,46,-19,-15
21,-2,67,10,127,-14,21,21
-16,-77,21,-29,-121,-19,-15,-12
1,-38,-31,9,-15,-20,-9,-9
47,52,114,-33,-38,7,9,17
36,30,42,59,127,-58,-38,4
-14,-59,-63,-28,-39,-11,35,9
-36,-17,-10,-52,-119,-49,-22,10
-30,-22,26,76,127,28,9,-19
-34,21,-46,-14,-36,-30,-14,-17
64,26,118,13,-25,-9,0,12
5,45,118,41,18,-128,-53,-4
-8,35,-115,-17,-83,127,87,1
3,-78,-17,-26,48,2,25,8
0,8,-94,-43,-64,-27,-17,12
2,-30,-45,-9,15,-12,-35,-42
20,-6,-35,18,12,-33,10,5
-35,11,-18,-89,-62,-9,-23,-18
-95,39,127,-28,-67,41,12,-15
47,111,112,49,53,-128,-43,-5
-17,-83,-128,-47,-56,20,37,19
3,-58,-56,-21,-6,48,-3,1
11,-47,85,26,10,-3,2,6
20,35,67,18,10,-8,10,15
40,32,82,20,66,-21,5,17
-46,-93,-67,18,-23,-121,-36,-11
-40,-8,-8,-72,-79,97,-19,-25
13,69,83,52,6,-44,-1,-11
4,13,25,19,-11,-128,-40,-4
16,11,17,-66,-94,127,81,23
17,34,-27,-17,11,-103,20,35
22,-69,-38,4,87,-46,-6,16
-51,19,-2,43,-85,-70,-52,-36
1,29,54,-22,88,127,33,-67
-5,-59,-9,-128,-72,-7,-17,5
-12,-21,23,22,15,-92,-5,26
67,113,59,111,-35,-78,26,24
0,-9,6,-33,9,113,16,7
-65,48,3,-2,5,-1,-26,-41
-28,-99,-82,10,-55,-128,-43,-20
23,-12,61,-74,29,54,4,-2
45,3,19,57,-16,9,7,54
8,49,68,-14,-22,-56,-8,-15
-106,-46,-39,-62,-27,46,3,-55
-33,-61,-112,59,52,-3,-20,-31
37,4,22,19,27,59,14,34
37,35,67,48,-9,15,9,32
22,97,-22,-90,-68,-42,-8,24
47,24,91,-49,85,127,26,1
-8,11,68,30,-13,-128,-49,-37
-81,-7,-126,61,18,4,33,-1
-5,-62,-75,-106,53,35,-12,-18
21,-4,84,5,-21,20,-4,5
12,-46,24,-19,-50,-117,-22,0
13,8,19,-40,-88,-69,32,25
22,47,-12,97,112,-75,0,12
53,25,61,45,127,127,36,-13
-116,51,82,15,-54,-35,2,-9
-14,-47,-123,-75,-96,-55,-27,-34
4,-87,-118,-40,3,-62,-33,-30
2,-18,61,5,65,-15,-17,0
67,127,127,-10,-108,74,46,42
20,-20,-128,-75,42,-17,1,14
-46,-80,74,22,-30,12,-18,-22
-3,-71,-29,30,-30,-80,-20,-5
9,41,99,25,-18,34,-16,1
48,94,11,-53,27,69,17,21
-46,-94,-62,-12,33,18,32,0
50,40,43,-44,-83,-11,1,4
-33,31,-27,-28,15,-6,-6,7
-40,3,-8,1,-33,-24,-4,-10
41,-34,24,74,43,-23,-22,-11
18,106,72,17,23,71,1,-9
-35,-56,-35,-29,-44,-18,24,25
37,-27,55,-35,-50,-15,-10,5
17,65,44,69,83,-38,-4,-20
-19,25,31,57,-11,87,7,-13
12,-99,-58,-105,-62,-72,-14,5
29,86,20,18,-55,-103,-13,5
-32,9,-27,-6,36,127,37,3
-48,-84,-79,-78,-81,-37,-27,-33
24,54,89,45,2,-36,-7,1
12,7,-35,-24,-11,105,5,6
2,-11,-23,16,-54,-72,-8,1
32,-7,19,33,94,26,10,12
-14,-24,7,67,54,-65,-29,-7
-29,-27,15,-6,-106,-70,-2,-12
-13,-26,14,-28,104,127,75,14
8,66,61,38,45,63,22,19
37,100,-108,107,1,-26,18,21
-114,-128,-31,-128,-65,-84,-69,-90
0,13,-22,-117,-58,-128,-42,-23
13,-13,36,78,-40,48,3,26
10,-10,-13,13,120,-69,3,15
76,15,-41,-26,-42,42,9,-10
-60,15,11,11,-11,14,10,0
-44,-42,17,35,26,1,-8,-1
26,115,127,37,24,8,25,33
26,-8,-128,-4,21,-18,-20,-14
-58,-95,127,-99,-96,-128,-56,-42
-4,-10,27,77,98,127,36,10
34,0,18,-15,-64,-44,-7,2
-44,2,-16,-19,-26,-29,4,6
69,-1,-28,-14,18,101,25,20
-65,-18,7,87,3,-26,12,12
-27,15,66,-1,81,12,-12,-28
59,66,23,1,-84,21,-4,-20
8,14,-95,-44,60,-14,-21,0
-31,-48,-82,30,-17,28,-12,-11
33,38,60,9,28,-71,-19,4
5,32,-128,33,-68,-128,-16,12
-68,-43,-60,-93,104,127,19,-4
-7,-57,24,10,-42,-24,-15,-13
66,-23,-5,55,98,-14,12,18
-26,15,49,-16,-22,-27,13,13
-9,43,-2,4,-74,-8,-9,-15
-64,24,-10,39,20,-21,-23,-37
17,-62,-26,-1,-52,-72,-15,-19
-2,38,116,-53,90,127,16,6
34,-29,-128,-43,-41,-1,7,14
-48,-76,127,-19,31,-40,-28,-6
-23,-89,-22,13,-28,-101,-16,-10
59,100,91,40,12,110,20,12
-17,50,0,-4,15,-27,-9,-15
-33,-78,-101,-13,-18,64,-7,-12
53,2,22,-9,23,9,9,24
-55,-14,-30,4,-12,6,3,4
-5,-29,-13,-4,-57,-25,-10,-26
-2,28,2,29,28,-45,-21,1
6,20,65,81,83,-25,15,23
8,-22,46,-31,-107,-53,-8,-5
-11,2,-128,-77,-12,-4,16,-14
-57,-71,-6,-44,-24,76,-34,-46
64,61,67,-13,14,-48,-11,-3
20,-55,90,97,127,30,-2,27
-91,124,47,123,19,-36,25,-5
16,18,-128,-128,5,19,-20,-33
-76,-49,70,-48,-79,-74,-37,-32
21,-44,-33,-48,-35,-30,-37,-5
16,-23,50,10,35,18,6,11
27,-4,65,48,-49,3,27,27
15,-12,-17,58,127,82,10,9
-3,109,92,-1,-8,21,33,4
-3,-23,-113,-30,7,-49,-33,-32
-16,-24,-35,-62,-61,-46,-26,-27
16,-9,-8,2,-43,3,-1,-3
-8,-68,10,32,74,-128,-25,4
7,49,38,53,106,127,47,7
29,115,-3,2,-128,-63,-3,15
-21,-93,-44,-39,118,59,-17,-11
-65,-9,-61,-5,-13,-61,-26,-11
72,14,-1,8,45,127,69,44
34,2,5,-8,-28,-12,-2,-10
-98,-27,-49,-34,-117,-30,-32,-64
-20,-26,8,-21,-4,-33,-11,-12
56,-24,-46,33,2,-38,-8,16
30,24,99,53,28,72,31,29
-28,42,94,66,5,8,28,9
-75,-10,-90,-126,9,-60,-17,-15
-12,-48,48,-78,-76,-75,-49,-38
17,7,11,32,37,26,-7,3
25,23,27,32,25,-16,14,28
-10,-71,-27,-9,11,-128,-43,-4
48,59,81,66,-69,106,63,17
31,127,2,29,-9,32,18,3
-9,-41,18,-74,-82,-50,-38,-34
-38,-44,-52,6,36,-25,-23,-9
44,6,-8,12,-7,20,-9,15
-19,1,-3,10,36,-20,15,10
-56,-23,-15,7,-16,-17,-4,-6
1,-28,19,13,-4,-14,-1,-3
12,15,-23,70,23,-54,1,1
-9,36,91,49,-2,-2,-15,-23
-8,-14,-47,-60,91,99,12,11
-5,-65,-128,-84,-85,-97,-19,7
24,7,65,-6,-62,-43,-4,8
60,-25,29,3,5,36,3,33
-110,-43,25,-12,-38,-28,7,-9
20,69,31,26,53,93,13,-23
4,119,40,-26,0,-12,-37,-31
15,-14,-36,6,23,-34,-11,3
23,-9,28,38,0,0,2,5
-3,-5,-33,0,30,36,-18,-1
25,1,-61,7,28,26,39,29
9,-4,41,-44,-50,-42,1,22
-22,-56,-42,10,2,-19,-14,-30
-5,-13,98,52,-42,-33,-17,-22
12,34,-63,-5,-34,75,19,7
-42,41,-42,-30,39,54,-15,-26
-16,-30,22,-64,-11,-107,-32,-10
12,-14,25,83,14,-88,-22,5
20,45,85,-18,-3,97,68,25
8,6,10,-14,-30,-39,-6,3
8,-86,-85,1,-30,-27,-15,11
-15,-62,-32,-6,20,-8,7,4
-10,15,18,15,16,18,0,-16
-54,123,51,8,49,13,-3,-18
30,17,89,27,-32,-25,-12,3
71,-14,44,4,37,19,3,23
-45,11,61,-11,-38,-65,-26,-24
-58,-18,-116,-113,-69,127,15,-22
-4,-44,-57,-63,-87,-50,-13,-15
17,6,-69,-10,18,6,5,7
17,-6,74,35,22,-13,15,15
1,-6,46,-17,3,30,-13,-1
1,-3,3,26,30,-78,-11,5
25,-1,-4,43,38,68,17,13
38,74,53,17,-32,25,41,23
-48,-4,101,-29,-22,-57,-14,-12
-51,-99,-107,-67,9,-43,-42,-43
-13,57,61,30,57,-11,-6,-7
13,14,-37,14,-84,0,1,-10
1,-3,-13,-11,-6,-16,-10,-7
19,-57,-16,2,-10,7,2,4
5,33,127,100,88,28,4,11
12,-3,-76,48,8,8,2,29
-24,-15,12,-128,-128,-128,-29,0
-19,34,-46,16,112,127,41,-28
3,47,-45,30,-70,-47,-20,-31
-19,-29,34,-36,-7,-34,-27,-23
20,-12,33,56,12,-12,2,15
-5,-54,12,-40,10,-39,-12,-11
0,-68,-18,60,68,-37,-4,12
49,73,123,27,36,69,35,24
28,127,-77,-5,37,-81,-12,-1
-118,-84,-128,-96,-108,-21,-30,-50
3,-30,-13,26,24,8,-3,-12
-8,-8,32,26,-31,17,27,33
21,-43,-21,-11,-2,9,6,14
9,20,23,-4,-27,-24,-11,-28
14,-32,77,27,-16,-110,-15,2
43,86,-10,7,61,3,-10,0
-10,52,-113,-17,-96,-9,42,22
-75,-39,-75,-75,26,-51,-26,-18
27,-29,7,20,18,-37,-4,-1
23,8,21,-7,-36,-12,-9,-14
3,-7,20,16,-66,-9,8,3
14,-59,5,49,13,-8,-14,5
25,10,-24,36,127,-15,5,24
64,122,35,-30,-15,35,59,31
-128,-62,2,-40,-96,-43,-28,-48
-33,-77,-6,46,13,-9,-16,-26
20,-31,80,-21,25,22,13,13
76,127,127,102,-6,-48,0,37
-4,21,-128,-60,-4,34,-5,-5
-22,-83,-128,-116,-43,-26,-44,-26
-10,-89,60,-12,21,-7,-13,-14
-11,-40,43,77,-10,61,16,11
-30,6,41,40,127,-38,20,5
67,115,44,-35,-103,11,13,21
-42,39,-32,38,-34,-17,-2,-6
23,-3,-14,22,79,16,-13,-15
11,-25,-32,8,-51,7,7,5
9,-10,-2,-12,-39,-34,-2,9
-1,-59,-37,12,-25,-43,-4,-12
34,58,63,27,127,103,-3,4
14,40,33,53,24,45,34,9
-56,-114,-128,-45,31,-23,-11,-3
-83,-58,-38,-86,-69,-46,-31,-42
50,114,92,95,40,15,14,8
25,113,92,-54,-55,-63,-18,1
-21,-46,-120,-12,-38,-34,-8,2
-16,-47,-48,55,-46,75,10,4
-30,-15,18,-36,14,-35,6,-6
42,-29,-2,-4,15,22,4,1
-22,-36,5,29,-15,16,1,7
89,49,51,20,-20,-11,13,-12
25,86,-13,40,68,127,6,7
-65,33,127,-42,58,127,9,-19
-20,-99,-83,-26,-50,-50,-32,-20
5,-49,-95,-22,34,-11,-6,11
43,14,-14,24,-21,0,11,17
-19,16,8,-60,-39,-65,-21,-4
9,11,-1,2,17,58,7,-4
-35,-10,78,-6,8,-30,7,-2
52,-42,-12,18,15,15,9,11
-38,-31,17,42,45,-120,-11,-4
3,124,46,42,-9,-12,11,22
-13,-3,-128,-86,-17,-109,-20,-16
42,-24,39,-24,19,125,5,-1
28,31,-1,29,-24,-1,10,-10
-29,7,57,-6,-1,-46,-24,-26
-25,-29,-25,-9,26,-27,-7,1
19,16,-4,-6,32,-80,-18,3
24,-1,4,15,-87,-27,8,13
-31,-20,-40,6,39,86,12,6
18,24,27,27,2,-52,19,38
-3,1,9,19,56,35,15,-10
-15,-64,-58,-16,-17,-16,-21,-27
-18,-10,10,-23,-38,-29,-16,-13
-4,18,63,-36,-7,-24,-10,4
25,82,-27,7,-26,-14,8,19
-6,-66,-39,15,-19,-15,-7,-2
-20,-44,64,51,-50,-55,-6,-5
64,95,76,-7,99,19,11,24
48,67,-4,-4,-45,127,62,19
-24,-44,-128,-36,-64,-27,-23,-28
-98,-38,-92,-94,-32,-49,-33,-40
-17,-35,28,0,36,-3,5,1
19,-12,21,33,2,-40,3,8
22,32,56,31,8,-11,8,-6
9,2,-9,1,10,36,3,-9
-7,-57,-16,22,-2,-3,-2,-3
17,23,9,3,-26,0,3,24
28,67,66,-3,85,-31,-10,18
13,2,14,10,127,127,-18,4
-41,-10,13,-21,-36,115,65,-2
-17,9,6,-4,-26,-28,2,-14
-21,-4,-41,0,-21,-38,-23,-12
25,12,7,-16,14,-23,-15,7
17,3,1,9,-12,-4,4,6
17,-17,-30,28,43,8,14,4
4,50,58,8,-5,17,4,3
12,36,10,-30,-37,-6,-11,1
-4,-76,-128,-37,-26,-10,-18,-8
-38,-38,80,62,54,4,-1,-12
26,-34,16,-48,8,16,4,4
-53,16,91,-14,-28,-1,-17,-12
-8,-28,-1,-15,-41,-109,-26,-12
17,-48,-11,43,54,48,26,10
25,13,6,33,8,59,18,14
3,74,-51,-25,-4,-13,-26,-11
18,16,29,-18,-6,-6,4,-9
2,-13,-13,19,5,-23,12,12
-34,-15,-33,-43,-47,13,-6,-13
-31,-57,-75,-10,-15,-46,-15,-41
-17,-33,-12,-11,-1,-12,-14,-8
10,17,46,9,58,17,10,11
3,-8,-1,20,-50,-3,-2,5
4,3,5,15,17,-28,-5,9
7,-12,-65,19,21,-14,-4,2
29,-6,33,-25,-5,-22,-30,-6
38,8,127,8,30,115,67,50
-40,20,-128,-14,96,93,30,7
-43,-30,-4,-57,-31,-12,-31,-40
2,-3,8,15,6,-35,-42,-44
13,-26,-7,17,-3,-10,-17,-2
24,51,81,30,13,-11,9,15
48,21,3,69,36,9,16,36
-52,-121,-24,-103,-27,-15,-24,-30
-3,-49,5,46,-7,-31,-12,14
37,123,112,32,46,-9,-1,18
5,43,-19,-35,9,35,32,-7
16,-32,-103,-2,2,-30,-12,-18
-81,-24,23,5,12,-1,0,-8
-28,-20,11,1,-14,-23,-18,-6
25,-2,17,21,-36,-2,3,-8
0,-4,3,21,17,3,-13,-12
6,-16,2,32,12,2,-2,1
-22,-37,26,-39,46,-17,0,17
39,69,-21,-15,-36,-17,30,43
21,29,-18,-40,-22,-31,-14,-28
-44,-62,-26,-23,-35,-24,-33,-52
15,31,-26,39,63,-8,-4,11
11,54,31,-7,-63,-33,-11,5
-7,-32,49,-67,-50,55,3,4
-22,-49,-49,2,20,-31,-11,-4
9,7,43,2,-38,-29,-13,-11
-4,-13,-16,29,9,47,20,6
26,-7,19,67,10,-37,12,28
36,22,1,-12,96,0,21,39
-15,29,68,58,-13,20,4,-21
-40,24,49,-58,6,39,13,-15
-1,33,-64,-21,-1,-42,-40,-46
-66,-37,-51,-51,-29,-20,-32,-41
13,-16,-9,8,20,39,13,11
20,16,58,49,27,-21,-2,9
23,7,-8,43,4,-50,-11,17
26,-1,-1,1,-11,60,46,24
-11,-11,16,-44,-6,1,1,-3
-1,-49,-24,-24,-77,-39,-22,-6
22,31,14,43,12,-11,7,2
-57,31,-14,-21,-43,-53,-25,-18
8,-52,-8,5,-51,47,-1,2
6,-12,13,0,81,127,28,18
85,113,127,33,-20,-23,-6,21
-89,11,-128,-44,11,98,23,-32
-29,-67,-118,-17,12,-25,-30,-28
28,-42,3,4,27,-23,-6,9
-51,-55,5,10,-57,-111,-24,-23
50,88,75,18,-38,127,34,10
-36,-3,-15,14,25,3,-15,-9
-39,-22,-48,-7,24,-41,-20,-6
-4,-45,37,8,26,27,-1,4
4,-45,-5,-14,-1,37,25,7
18,-17,-10,-16,58,-19,-3,14
27,127,107,60,-105,-102,14,10
19,66,-21,-31,-36,-68,-15,-3
-28,-96,-52,-41,2,8,-15,-25
-28,-29,11,-20,-22,7,-11,-11
50,4,17,32,105,-66,-25,16
3,29,57,99,26,-27,14,21
-31,14,104,-57,-76,18,18,-29
-82,2,-128,-44,14,0,-17,-32
14,-35,-19,5,-16,-117,-44,-26
-18,-46,27,23,30,30,17,22
21,-12,4,58,24,9,22,41
36,95,127,-5,-1,-13,2,17
2,55,-23,20,3,-13,-22,-23
-30,-63,-117,-85,-44,37,-12,-32
10,-101,-67,-12,13,8,-9,-4
-15,-24,-3,81,25,30,4,5
-2,125,127,-14,67,127,39,23
9,14,-4,-102,-89,-32,-6,9
7,12,-44,3,-35,-3,-5,3
-4,-52,0,-8,-5,-2,-1,1
-19,-10,9,63,114,-89,-49,-25
16,36,0,9,19,61,47,15
-11,-48,-42,-31,-35,-46,-18,-9
21,-16,-116,-28,4,-20,-6,-5
-22,-38,2,47,-7,-5,1,-12
28,-3,23,18,37,-3,5,3
35,52,20,4,-35,-113,-12,4
-61,65,30,2,66,127,27,10
57,20,66,88,51,-19,-19,-18
-18,-32,-105,-54,-45,-11,-9,-20
-38,-55,-4,-39,-82,-20,-8,-5
2,-8,-8,5,-87,-39,-6,4
24,36,1,-4,46,37,-5,-1
31,19,15,26,92,81,11,17
16,-9,-10,6,-91,-63,8,13
15,-14,17,-10,28,33,14,23
18,27,55,55,102,-11,0,-15
-102,32,36,74,35,-32,-22,-41
-32,-48,-69,-25,-19,70,-13,-21
39,-1,-63,-128,-109,-45,-7,13
32,-10,-30,6,-29,-17,-4,5
-6,48,62,51,96,-4,5,7
-24,-16,-10,-4,-89,-24,-18,-6
4,4,34,89,125,58,33,21
-3,-49,0,28,-2,24,-2,1
43,69,86,-70,-45,-41,-6,7
0,-17,-88,-104,-70,-30,-10,-4
-51,-73,-81,-45,-36,-1,-6,-25
-4,51,35,75,90,10,0,-3
19,49,45,2,-64,-26,-9,1
23,-103,-11,51,13,6,-8,6
-19,60,30,0,15,33,7,-1
42,101,75,16,4,-49,-8,3
-76,-95,-128,-44,-7,-35,-25,-26
-40,-29,9,-2,25,2,-1,-4
37,-4,10,33,46,-70,-5,2
-22,16,24,8,-63,36,7,-19
5,-3,-6,-61,3,36,6,13
3,-13,41,34,4,1,3,-3
7,-16,-41,-3,83,81,5,-15
-11,-62,-57,-5,-48,-31,-7,2
7,33,82,40,-21,-13,1,-5
-12,35,-61,-16,0,-5,-2,3
8,14,-128,-83,-28,-24,-28,-10
-42,-33,12,-55,-34,23,-5,-8
-5,-33,15,66,73,2,-2,-17
25,17,30,102,37,8,8,-14
33,83,93,-91,-46,19,2,13
0,-12,8,-37,-24,-18,-3,5
-21,-42,-90,-22,19,-9,-19,-4
6,6,-5,7,25,33,7,1
-13,-18,10,28,-52,-80,-11,-8
-31,-24,16,-29,-35,1,4,4
70,16,-37,13,122,50,12,32
-47,-49,-58,-42,-128,6,38,20
22,11,-23,-59,-5,-29,-28,-39
14,92,2,68,97,1,-3,-2
23,-6,34,-32,3,-53,-28,-12
-19,6,-7,3,-2,-40,-13,3
22,6,47,-36,-16,34,12,13
-3,-24,-19,21,27,4,2,-7
-28,-45,39,30,19,9,4,-7
7,7,-23,7,-3,-69,-8,7
26,16,20,-25,-31,26,0,15
48,-23,-37,19,65,-11,9,7
-7,6,-52,-21,-97,12,14,25
-45,-49,-81,-59,-3,-38,-19,-14
-34,38,103,-18,106,106,-6,-23
35,-3,-10,31,-42,-33,0,-5
21,-17,54,14,45,100,0,-19
33,48,22,22,35,-12,1,8
-2,86,-19,17,-33,-48,-6,10
-53,-114,-122,-13,-10,-10,-13,6
-47,-73,-75,-20,1,76,16,-5
39,109,-2,38,8,-26,1,-21
22,15,-10,-74,-11,55,-11,-4
-50,-27,2,9,43,-19,-17,3
-9,-42,-31,24,2,82,7,-4
2,-31,6,36,46,-74,3,-1
43,70,108,30,-15,83,26,15
7,-9,-128,-45,30,1,-4,-8
-24,-64,38,-17,-23,-37,-31,-20
-20,-51,-4,-28,-65,-14,-3,4
22,5,29,28,3,4,5,13
30,36,31,41,85,-98,-17,8
-51,-24,-128,-119,-28,127,11,-23
-57,35,9,-26,-9,4,-2,-15
-7,-27,-12,5,18,-39,-18,-1
49,-17,19,32,55,31,16,23
-1,10,18,-30,-107,-32,-4,-3
-14,-19,-32,-16,19,-5,-2,12
-4,-11,55,6,-6,-47,-8,-10
59,-21,-24,-46,75,61,-4,-26
26,-40,0,32,-10,51,9,-33
20,57,-44,47,84,-1,21,10
-31,9,66,-11,-48,-4,-10,-2
-90,14,17,-19,5,-6,-12,-22
-9,-15,-128,-39,22,-40,-12,8
67,-33,-34,-51,-105,-35,-10,7
-82,-59,-4,-20,47,11,10,9
73,13,61,48,104,-36,-15,-11
50,119,62,10,-19,-77,7,31
18,-9,-40,-11,-19,-13,2,-14
-14,-45,-23,22,38,3,10,23
-42,27,96,8,8,-19,-9,-17
-8,-32,-7,11,-50,-32,-16,-49
-19,-10,5,-45,-25,5,-7,-18
1,-13,-31,-23,-26,-40,-11,10
-6,-47,-47,40,1,-26,-6,17
33,49,58,0,1,28,25,12
0,40,16,-6,63,17,-4,-2
-5,-4,15,9,11,-20,-14,-13
-1,-29,-2,-25,-45,-27,-13,10
-22,-5,58,25,35,2,17,1
2,0,-17,67,-25,42,22,9
47,20,-49,-39,-22,-34,-23,1
6,11,-24,-72,-68,33,-18,-23
-33,-29,16,0,102,31,-15,-29
-47,-61,10,-9,-2,-9,-16,-10
-30,-26,9,20,-101,-69,-15,-5
37,44,33,27,76,127,21,16
63,48,-5,19,50,127,58,36
-21,-18,-11,-45,-33,56,-11,-2
-41,-33,14,47,103,0,-8,-34
10,-35,-30,-35,-28,-8,2,11
21,9,-10,-74,-60,-15,0,14
-6,31,41,52,-12,-51,-28,0
13,49,127,11,-46,38,6,-19
-62,-70,-84,-23,76,83,25,11
23,28,39,-33,-29,-1,-23,-29
62,15,-75,33,26,-11,-11,5
-21,-12,-8,-6,-10,-14,4,12
6,9,32,2,23,-62,-3,12
61,-22,38,77,-12,8,11,19
-22,-14,-24,-54,-42,-62,10,11
16,17,7,-41,-10,-43,-22,-6
-39,61,2,-10,13,41,-26,-42
-17,-45,-41,-16,-128,-51,-38,-61
-14,-47,4,-72,-14,-22,-15,-5
5,-63,-128,45,6,4,16,17
11,4,33,26,37,20,21,19
38,94,108,45,26,-17,22,32
36,-11,-51,4,32,14,-5,18
-75,-51,-2,-15,-21,-5,-19,-42
-92,-12,18,-23,-6,-42,-1,-22
71,27,10,71,84,39,3,-5
9,-21,-62,-7,-20,-14,-11,3
-8,15,-66,-26,-13,-19,0,15
4,5,16,-15,15,47,-1,0
31,1,-70,-21,-27,-9,1,-10
-32,-9,28,-1,23,3,-7,-8
-18,-1,-8,24,-1,-24,-2,3
8,-42,42,4,-45,-19,-9,6
2,9,36,5,104,-7,9,16
70,14,-90,-25,-54,-23,10,19
-89,-22,16,-46,62,23,-16,-44
2,27,70,52,-15,-33,-1,-20
18,35,39,24,55,-22,-2,9
29,-62,-34,-12,-42,-26,-9,5
-41,-13,-18,1,20,-26,12,17
23,63,58,23,4,-18,-4,12
-20,46,-1,-25,-80,71,14,4
3,-43,-66,-34,-14,-29,-8,-6
1,-31,-80,-38,-9,-5,-7,-9
1,-16,11,-9,14,16,-9,-7
-10,7,17,40,46,39,21,8
82,7,44,34,46,-60,-9,39
-83,-77,-94,-37,-70,58,10,6
39,-8,15,4,-6,27,6,-48
-44,127,127,-24,24,20,6,-20
-14,-5,-121,-25,-8,-49,-31,-20
-10,-38,-30,38,50,-4,0,3
12,-25,4,12,-13,-20,-6,13
19,-26,48,15,-40,39,32,14
20,18,-10,23,7,11,16,-4
25,24,63,22,70,22,-5,-3
-43,-25,-104,-27,-36,-29,-32,-21
4,-20,-8,-22,-11,-9,2,9
11,-1,-14,-14,-52,12,14,8
-14,-11,54,20,-43,-25,-4,-2
-17,11,-16,-9,-4,4,3,-4
14,63,50,14,5,-15,-9,-4
48,-17,-73,13,-12,-32,-18,7
-31,-46,50,-44,41,98,26,-1
-76,3,59,-13,11,-13,-13,-13
14,-26,-13,-5,-62,-17,5,4
-1,-9,-35,-18,61,-46,-20,-25
7,20,15,-4,-54,38,-8,-17
-5,-24,-28,6,52,4,3,14
124,3,12,14,-43,-42,14,32
-56,33,64,57,53,47,21,17
-56,35,42,6,19,11,8,-18
-120,7,-31,-64,-78,-41,-44,-56
24,31,-16,3,54,-1,-14,0
34,10,-44,-11,-19,14,10,5
2,-38,-44,8,17,-20,-2,5
-30,-37,-12,24,-17,8,0,10
11,-2,24,4,45,-15,-2,3
4,10,14,-4,28,9,13,2
3,-33,1,-21,-19,23,5,-4
25,23,39,-5,-25,9,-1,8
4,45,102,19,-22,-54,-11,6
-24,-87,-128,-3,28,32,7,30
-10,-12,-18,3,-15,112,37,2
51,127,64,18,11,12,-9,-40
28,30,-11,-31,34,-37,-44,-38
-11,-52,13,-10,34,3,-11,-6
-59,-44,25,-9,9,-18,-9,-12
15,-33,-72,-1,-10,-5,7,11
13,-16,-27,-1,-5,-3,5,9
10,-7,8,11,-13,0,9,8
5,-8,9,10,8,8,-4,6
6,40,35,23,-37,-86,-12,-5
0,-14,-15,28,127,127,26,12
25,9,0,-3,-120,45,24,21
3,8,61,-110,-111,-70,-20,-11
-28,-44,-74,0,1,-23,-21,-44
-70,-76,-20,24,106,-4,-16,-24
10,85,53,6,-39,2,-14,-6
-37,95,98,-34,-21,-33,10,9
3,-44,-128,38,-12,-9,-8,-18
17,-26,-6,-39,-17,12,-4,9
23,-25,12,-6,60,14,11,34
-42,-53,-15,26,-39,1,-7,-7
59,56,118,43,24,-32,6,10
17,122,70,36,-17,65,35,16
-42,-128,-128,-128,11,-59,-56,-81
4,-35,-56,-47,-72,-33,-30,-13
-28,11,23,-42,-47,10,13,14
-24,2,18,5,59,33,16,11
6,-13,10,55,-48,-26,10,15
12,12,37,31,15,-6,4,8
3,-14,4,10,27,28,-3,-2
7,-93,-39,35,17,-114,-16,2
58,77,60,52,-57,7,49,52
17,127,77,-65,-22,52,46,2
-3,19,59,12,-33,-28,-46,-53
-100,-115,-128,-98,-14,-40,-54,-54
9,-31,6,-29,12,0,-8,7
21,-7,29,21,16,6,16,18
9,-8,15,24,-16,-3,0,10
8,4,18,28,41,18,5,9
-2,-7,2,18,-9,-128,-34,-9
13,5,-1,-3,28,110,49,16
2,-17,-1,20,-12,-14,1,5
1,8,2,20,-22,-10,-2,-1
-17,20,6,-66,-9,-32,-4,-16
-15,1,-8,-6,-47,-9,-12,-8
5,-14,-22,4,10,-2,-9,-4
-1,-6,-38,6,11,10,3,-2
0,-6,-4,-8,8,-1,-1,-1
0,3,11,-1,-19,6,-3,1
-1,-18,5,79,19,-92,-33,-11
-15,-119,-62,-70,56,127,50,14
29,39,40,-17,-97,-81,16,52
97,127,127,5,-31,61,1,12
-122,-31,-125,-13,61,-13,-59,-92
-52,-108,-56,24,1,-52,-18,-38
51,9,25,-66,-47,12,-2,-9
-21,-17,-10,12,32,-8,2,10
-21,-14,-11,-28,-44,-11,-5,14
6,8,-5,44,127,9,6,8
9,6,0,45,-101,16,8,13
8,-5,8,-9,-4,2,3,7
9,-2,31,39,55,-9,-4,10
8,49,15,-8,4,-25,6,15
5,10,-14,59,-8,-22,1,-4
-29,-11,-20,-51,11,5,-7,-14
2,-43,12,42,27,16,2,-2
8,38,1,-9,-29,-2,3,-6
1,6,-18,-13,36,19,-2,6
11,36,45,-36,-5,-13,-2,-8
-4,-8,-31,-3,13,-68,-13,-6
-4,-29,-62,4,-13,89,14,0
7,4,50,31,40,9,3,2
21,-24,-22,-29,87,52,2,7
-29,10,44,52,9,-22,3,14
-14,-8,-7,-18,-42,-55,-10,27
22,-30,-4,27,43,127,11,-10
4,47,15,-21,5,13,5,-38
-25,19,-7,-13,7,-4,-30,-48
-92,-38,-33,-28,-14,-42,-22,-23
15,-10,4,-40,-11,22,11,16
11,-1,11,27,41,6,6,11
21,1,14,1,-45,19,15,21
10,-13,-2,11,26,-29,-1,15
6,18,6,-20,-41,-16,11,10
7,11,42,76,42,-1,-4,1
5,-93,-72,-24,127,1,-4,-2
-9,-3,9,-24,-127,43,28,10
26,114,7,-20,-50,-76,-11,7
-23,53,40,-8,-6,-13,-13,-18
-6,-23,-15,-17,0,-9,-20,-17
-11,45,0,3,-15,-12,-1,-4
-17,-56,42,5,6,-22,-10,-12
-12,-69,-47,-6,31,-69,-11,8
25,5,34,14,9,71,21,31
22,-44,-32,54,33,-7,16,11
-27,29,-4,-53,-49,-21,-4,-12
0,82,27,-25,-66,-14,-13,-28
-21,-50,-56,6,37,-54,-26,-11
10,2,62,-2,26,-2,5,11
-5,21,46,13,25,11,11,-9
64,-28,-22,5,-25,-12,-5,3
-39,-50,-43,-12,-18,-12,-17,-11
-34,9,2,69,108,0,6,4
53,44,45,51,-9,19,18,23
-5,42,-2,-117,-128,-25,0,22
-3,-33,71,-46,14,-61,-24,-14
2,-17,-31,0,8,4,-14,-45
-12,-16,-23,-9,-12,-6,-3,1
-15,8,109,65,36,0,8,4
10,-18,-26,-16,-10,12,17,8
-4,-1,-58,-40,2,7,-9,-1
26,33,53,24,13,0,-2,5
25,8,53,6,-37,-17,-8,12
-33,9,85,32,69,31,-11,-32
-6,-36,-106,-97,-103,74,2,-10
-73,-63,-51,6,6,-38,1,-18
14,-30,32,18,-16,47,4,9
28,127,8,24,1,-10,15,18
-27,-3,22,10,0,1,-6,-9
-10,-38,-19,-1,3,-33,-18,-28
6,-28,-18,0,-81,-20,18,0
23,-26,18,-30,51,92,7,13
-46,30,42,47,80,14,5,6
41,8,-66,47,62,1,16,-6
2,-4,-37,-63,-113,-18,-15,-9
-80,0,37,-33,-10,-38,-31,-25
-10,-16,-74,-32,-14,7,4,-14
-2,-14,11,4,27,15,-5,2
14,-17,-8,24,-9,-53,-20,9
19,-8,3,43,31,117,37,25
-5,-33,-16,7,38,7,11,-31
15,15,57,-13,-33,-22,2,7
-12,103,91,-5,-28,-63,-8,-7
11,8,-128,-71,-30,8,-16,-21
0,-53,25,-8,29,-20,-22,-16
-31,-26,-1,24,-11,7,0,-6
-9,-3,13,-38,9,-4,3,0
9,-20,2,28,-14,-10,-1,10
19,14,-11,13,-6,11,1,7
-7,-20,-11,-25,16,-24,-13,-5
20,-43,-33,17,29,28,19,30
10,65,114,4,55,-29,2,2
-3,58,-49,43,48,38,25,-13
-66,-93,-63,-111,-106,-75,-31,-27
7,31,33,-29,-65,-6,-17,-14
-9,-10,-84,-2,-35,-9,-8,-2
-5,-17,-4,-24,19,29,2,0
10,-11,32,16,28,36,10,5
12,11,35,96,97,-6,8,11
4,-5,-7,30,-28,9,1,5
26,-76,-91,-115,-98,39,8,25
-28,-9,45,48,25,-74,4,-2
22,121,74,-6,64,81,12,-10
-10,26,-12,-59,-72,-33,-33,-28
-61,-49,-29,-3,-6,-18,-20,-22
6,-24,-7,-17,6,-4,-6,1
2,-16,3,-7,1,-6,-4,3
12,-11,12,25,11,11,8,22
-9,-1,12,-23,14,-84,-4,-2
7,14,0,33,11,104,4,-13
29,5,-1,12,-22,-20,14,7
-17,8,31,-15,-61,0,7,5
26,-40,-16,0,41,-26,-5,7
-9,9,-44,-33,31,21,-22,-26
-126,50,67,-5,-53,2,2,-12
7,-5,39,-98,-69,-22,-14,-18
20,-28,-33,12,-27,-19,2,10
8,-23,-71,21,39,19,-2,1
11,5,19,2,-22,-10,7,9
7,3,26,28,39,-39,-6,5
5,-5,9,12,-22,29,13,7
-12,-24,-40,-24,-62,-25,-2,3
-8,2,27,7,18,2,11,-4
10,9,33,-15,-2,10,-4,7
49,80,39,17,20,-48,2,36
4,-3,1,18,22,-58,-23,-18
-31,-4,0,-3,-19,-6,-9,-43
-78,-29,-51,-13,-25,3,8,-39
-23,4,-58,-38,3,-14,-5,1
-16,-34,-27,4,7,-6,-2,9
32,-27,88,12,24,-11,-3,15
2,15,12,8,-22,1,0,0
-19,4,15,-28,-27,-46,-11,2
6,2,22,23,20,47,-7,-6
12,25,-83,0,-73,-24,17,0
6,38,18,-29,-17,-28,-17,1
0,-32,-11,-4,-3,24,4,14
-10,-61,1,47,66,-98,-6,9
24,75,71,28,3,15,38,20
18,50,28,-37,-21,4,8,13
-66,-56,-95,-91,-93,-62,-53,-65
-19,-77,-37,5,56,-20,-24,-20
4,-26,-46,19,1,-4,-5,3
8,1,25,10,-2,6,3,6
9,4,-27,21,-7,-31,1,6
-1,34,12,26,-21,-33,-14,0
21,5,127,12,37,127,62,47
19,-36,-75,3,31,-13,11,10
-66,-11,-36,-62,-30,-25,-11,-38
20,39,-6,-10,-12,-88,-38,-23
11,3,-1,0,-3,11,-6,3
-31,7,35,-4,-53,-29,13,-10
-24,16,23,-24,29,55,3,-4
26,1,63,127,81,-39,-5,7
38,35,14,-62,-128,41,13,17
-13,-41,-29,-51,7,-22,-8,1
-35,-35,-72,-10,30,-13,-13,-14
25,20,-6,23,18,2,-7,4
2,-10,28,-5,-8,0,-1,-2
-2,-3,24,17,19,14,-4,3
14,18,23,-5,-12,-8,3,8
-13,5,-31,20,3,12,0,-8
-1,-3,14,15,-3,-85,-4,0
-15,-40,-40,11,112,127,31,11
-9,-52,30,7,-103,-101,0,7
35,94,103,23,35,37,20,10
-71,60,-28,-81,-60,46,-11,-38
-12,-57,-79,-23,17,-15,-18,-42
-26,-32,-4,21,-49,-24,-23,-4
2,-97,-67,-21,4,-6,-12,9
25,-35,19,68,0,-128,-47,14
9,119,71,32,20,124,102,34
-3,13,10,-45,20,-29,-16,-5
-13,-27,-120,-71,-17,-31,-23,-21
-52,-39,14,-6,-60,-22,-15,-27
33,20,23,32,-11,-31,4,-5
20,-3,37,34,-19,-10,4,5
-68,-32,63,18,8,21,-31,-19
20,-7,-36,28,91,41,31,15
31,53,-3,41,-50,19,9,23
-7,3,63,-76,-47,-29,-13,-10
13,28,-7,-29,28,60,19,20
7,-32,-25,-18,55,11,-8,-18
-55,-8,34,-3,-21,53,-6,-17
3,-56,-28,-24,-35,-30,-5,-12
10,3,-15,17,23,-40,-12,1
2,8,13,33,-23,-128,-29,-2
14,30,63,29,21,127,61,20
2,8,13,33,-23,-128,-29,-2
14,30,63,29,21,127,61,20
46,52,-28,-11,-79,15,31,38
24,-15,47,-61,63,-28,-14,-6
