Channel_1,Channel_2,Channel_3,Channel_4,Channel_5,Channel_6,Channel_7,Channel_8
-1,0,-3,-5,-6,-5,-5,-2
26,10,17,-61,10,4,0,10
18,13,17,28,-14,-6,4,14
12,3,-5,4,28,8,-2,4
10,14,8,31,-34,9,3,1
-1,-3,-3,-23,-24,-1,5,3
26,-5,5,0,3,-15,2,5
-48,18,10,-5,19,4,-2,-6
-13,7,-30,0,14,19,-1,-7
-11,-23,-12,-3,-40,-24,-15,-22
29,0,-1,9,67,7,2,9
-37,3,7,-2,4,-11,0,-14
18,-5,-17,7,-55,-4,5,8
17,-9,2,-10,14,3,0,7
0,1,10,-24,-9,-3,-4,6
9,4,32,26,13,-63,-8,5
22,-1,-41,-13,-80,99,27,17
1,8,52,-28,-87,-3,7,0
-19,-5,13,49,-24,-16,-7,-14
-2,-12,-69,-114,70,-6,-5,-6
-20,-9,7,-17,11,2,-2,-6
6,0,11,-28,26,1,2,-5
-3,-16,-20,-72,-108,-24,-17,-11
2,-15,0,30,4,-46,1,3
88,42,19,-7,11,23,16,44
124,39,12,-18,3,2,1,-7
-128,-70,-73,-11,6,-2,-11,-38
51,-20,-12,-1,-24,1,-6,-13
1,-6,16,-5,-128,5,-4,7
-5,2,-4,43,91,-11,-3,7
-6,1,-8,8,-32,14,7,8
33,17,25,16,25,15,2,2
-51,-3,44,-2,11,-19,-7,-19
-14,-16,-44,-23,-1,-7,-8,-15
-3,-6,-9,-3,18,1,1,3
10,0,17,18,-5,-1,0,15
49,18,15,2,39,35,6,-10
-128,-52,18,21,22,15,-2,-47
-115,-50,-128,-63,-86,-21,-11,-29
48,0,7,46,-31,-13,-6,8
41,14,5,-36,17,-35,-6,18
41,4,16,109,-20,87,9,9
22,7,3,-13,17,0,0,2
-16,8,29,-9,1,-15,-4,-11
45,-30,-9,-14,-5,-3,-9,-36
-35,10,5,48,45,-9,-2,-26
47,19,1,5,-49,0,-4,20
43,0,12,6,11,-4,0,5
-50,-16,-6,-55,5,-2,-1,11
12,-12,-19,-11,-3,10,3,2
26,2,35,-8,4,-14,-1,-5
18,6,3,-1,12,51,10,9
20,6,2,-17,94,3,11,18
34,10,20,31,-43,-4,0,25
29,13,31,52,6,0,-11,-23
-128,-23,-40,29,16,-12,-5,-39
76,-19,-70,-95,-99,-5,-18,-5
-15,-14,-12,-6,-6,-5,1,-7
-22,-20,22,7,-13,-7,5,-13
29,-5,13,-10,9,18,8,7
33,7,-20,11,9,-15,-1,11
29,6,12,24,19,4,3,14
23,24,60,-3,6,-7,-2,7
9,18,-12,-20,4,-1,-5,2
-15,-20,-17,27,-18,-14,-16,-16
1,-11,-1,4,67,-10,-10,-6
3,5,23,-26,-117,8,12,6
8,-2,1,-6,127,52,14,14
-98,-12,35,6,-103,-15,-5,-22
-56,-3,-23,-20,41,0,-5,-30
8,-18,-13,2,-92,-10,-3,1
59,-3,0,-9,3,-1,0,26
-10,20,8,2,13,-1,2,15
-83,27,7,15,2,-8,1,-13
-46,-3,54,-23,3,-16,-10,-35
-71,-64,-128,19,41,2,-7,-26
27,-8,23,-64,16,2,-5,15
69,13,-7,-20,127,2,7,10
-20,-5,-19,-35,-128,-11,-8,-22
-54,3,8,-12,73,-10,0,1
37,5,20,27,65,-3,-4,12
43,9,15,-14,42,-2,5,13
-3,11,13,21,61,-4,4,12
24,11,8,20,-1,5,1,5
-16,-10,9,-20,-28,4,-6,-19
29,-15,13,28,6,2,-2,0
-7,-17,-40,-100,-34,-26,-11,-20
-47,-11,-11,-30,-36,-10,-5,-5
31,10,5,1,-43,-2,3,12
-53,1,-8,10,-14,-12,-6,-9
14,7,16,-65,-3,0,8,-2
-4,-1,25,-2,8,22,3,7
59,-5,-5,0,-11,-2,5,19
6,17,47,60,15,-5,1,3
-29,20,-69,28,-6,-6,-9,-5
61,0,10,-33,-14,-6,-5,-3
-31,-38,-23,-13,3,0,-7,5
-24,9,13,21,78,25,2,-5
-69,-6,-1,22,-63,-8,-10,-22
3,-15,19,20,41,-11,-9,-7
-79,-9,-1,-2,-20,-18,0,17
20,4,-42,2,42,38,2,-2
-21,1,26,-30,12,-9,1,-15
58,10,-2,14,18,12,8,15
17,8,-27,4,40,-27,1,9
41,0,58,-12,-128,-12,-4,-9
-128,-17,11,35,55,-6,-4,-26
-12,-12,-42,-33,32,-8,-4,-3
15,0,32,-2,7,-27,-1,3
23,15,33,106,-24,5,-4,5
-4,-11,-26,-14,7,32,1,-7
1,-13,-7,-95,-9,-18,-4,5
49,4,0,-8,2,1,8,15
-1,-1,5,33,7,3,7,1
-22,3,2,11,28,2,-6,-16
-45,-8,-36,10,-43,0,-6,-14
57,10,18,-8,65,-6,-7,23
66,3,10,-15,-97,-25,-10,-10
-128,-18,4,-19,3,8,-7,-38
-10,-9,4,-37,5,10,3,-10
-10,-28,-64,-8,-5,12,-3,-3
41,-7,-46,23,46,-11,-2,16
22,10,24,-4,-65,10,4,31
4,18,-1,-4,-30,-6,5,1
15,16,26,10,5,-5,-12,-19
-128,-23,8,-44,-21,3,-9,-31
11,-4,-24,63,81,-42,-10,-11
-13,-14,-17,-18,-56,54,13,5
27,16,18,-4,-22,-7,1,16
2,5,2,-31,0,-2,-2,7
-9,-2,10,-18,-28,-3,1,-6
0,-5,-24,2,32,9,8,6
-2,4,17,-10,15,1,-6,-1
-6,-8,-10,57,40,-7,-2,-1
-10,1,5,-6,-75,-9,-2,0
51,14,14,-16,-14,-7,-5,10
52,17,23,50,27,-5,6,11
-63,-11,-17,4,9,-1,0,-33
-108,-14,62,-12,-15,-5,-6,-27
9,-24,-123,9,-9,8,-8,-8
14,-5,-17,3,-13,8,-2,5
34,4,28,-7,-11,-2,2,5
48,24,19,21,18,5,5,28
17,6,-5,-2,10,-4,-2,-1
-116,-24,7,-10,-43,2,-4,-24
52,6,5,-4,-6,-10,-4,10
-22,2,-7,22,14,19,0,-2
-28,-15,-22,-103,-10,-4,-11,-26
-2,-3,31,23,24,-26,-2,-6
9,-18,-2,7,-22,-12,0,3
13,13,3,25,36,4,6,9
19,18,-2,-6,34,6,1,15
-2,-14,-37,-5,-24,-14,-8,-4
6,5,14,9,-3,11,6,-4
-17,0,-6,1,-55,0,-2,-1
3,1,27,51,14,-5,1,3
-5,1,-16,-31,51,-10,-5,-2
15,0,43,-20,1,-3,2,2
35,-9,-51,28,-17,-7,0,-3
-18,-2,-9,-3,1,6,-4,-4
0,0,-2,-29,-21,-12,-2,-5
14,0,-9,9,-14,27,1,2
23,-9,3,44,17,7,5,7
6,9,14,-11,-3,-3,6,20
22,8,11,27,14,-5,-8,-5
37,7,22,-14,39,5,6,-6
-82,-26,-39,16,2,-13,-7,-9
-49,-11,9,9,-14,19,4,-15
46,6,-2,20,-36,17,-14,-29
6,-15,-57,-21,-27,-6,-8,-11
30,3,-9,-11,8,-6,-3,14
49,0,-9,-11,4,-13,3,9
-35,0,21,23,25,-3,3,-4
18,0,13,-1,-54,3,3,8
2,-7,-13,33,118,13,2,5
-2,-7,6,-2,-79,-9,-7,9
67,3,-21,-36,5,-5,0,15
39,12,-7,4,35,-15,-3,5
-72,2,19,19,-53,-3,-2,-26
-19,-10,1,-5,-5,7,-11,-18
5,-3,-7,-13,4,23,2,-7
12,-5,38,-7,4,-15,3,7
6,-16,-115,1,5,-7,2,5
13,2,-4,6,11,3,1,14
2,-10,-4,-21,-17,11,1,-4
-2,2,17,18,-11,-23,-7,-4
80,38,5,-9,43,25,10,26
24,27,26,69,28,4,2,-1
-116,-59,-44,-56,16,58,13,-42
-32,-13,-9,-22,16,-21,-19,-27
10,-9,7,14,-128,-26,-17,-6
22,5,-25,-14,-45,-11,-8,1
-10,-8,0,21,47,1,2,4
15,-1,2,7,33,9,0,2
16,3,-4,16,16,6,6,14
12,10,10,-31,15,4,3,5
23,7,8,21,1,-12,1,14
-8,11,-3,-28,2,13,-4,-7
-14,2,19,36,-2,-24,0,-3
8,-15,0,-20,-10,20,2,19
27,0,-1,-6,0,-1,-8,3
-17,2,21,-11,-5,-9,-10,-45
-63,-4,-29,-4,-3,-12,-12,-27
6,-15,-32,6,-7,6,4,-1
11,-30,12,6,-19,-1,2,8
14,23,7,-76,34,-26,3,12
6,1,-18,-16,3,-9,-8,3
4,-4,-8,38,-13,6,-12,1
-4,-20,-18,-27,-22,15,6,7
42,18,17,22,-12,-1,5,23
71,36,24,-19,-60,-11,-7,2
-11,-14,65,14,58,-7,-7,-23
14,-56,-128,-21,16,0,0,-30
39,22,7,10,-2,-8,0,10
69,11,50,28,-39,-4,3,17
5,0,22,-86,-7,6,3,-3
-128,-23,-82,2,6,8,-1,-3
8,-5,-4,-9,-9,-13,-4,-10
-32,6,37,83,58,17,3,-13
25,-5,-19,-8,15,-4,0,-9
-27,-13,-44,-1,-7,-27,-3,-6
21,6,14,-72,-3,40,11,11
-2,9,30,-6,4,15,-9,-2
-1,-8,-37,-27,-22,-1,0,3
-10,-18,-128,11,10,4,-3,1
-6,-13,6,-6,-28,-9,-2,-4
-4,0,7,5,21,-9,-3,-5
-3,15,6,24,6,7,3,-4
44,-2,-28,-29,1,13,3,17
59,16,21,-5,-29,-24,-3,11
-91,-24,0,-8,47,17,-3,-17
-94,-27,-13,-15,-32,-6,-4,-26
-102,-20,-17,-12,-97,0,-7,-31
11,1,2,21,43,-4,-1,24
23,-3,-19,0,15,-26,-2,10
-17,3,12,1,0,27,1,-12
-13,24,13,-9,73,-9,-9,-12
23,0,-54,-6,-20,5,4,17
5,6,62,9,-109,-16,-6,3
8,-19,-104,-32,3,1,-5,0
47,22,-31,15,-7,-33,-5,25
20,10,-12,5,47,69,19,-3
-55,-35,1,1,-14,13,-6,-42
-20,-33,3,25,-38,-19,-12,-24
27,4,9,-6,10,-5,0,8
37,7,4,-7,-1,-6,3,22
80,14,-1,-25,9,-3,0,28
22,2,-4,31,30,-41,-11,-11
-128,-28,-5,7,-32,28,4,-36
0,15,0,-16,27,15,6,-5
52,2,63,4,-38,5,0,8
-5,5,-48,10,4,-9,-2,2
53,5,-2,-52,-97,-16,-1,-3
-68,-13,-6,25,43,-2,-3,-24
5,-8,7,32,17,2,-6,-1
-9,-8,-6,-5,3,-9,-10,0
7,-5,16,14,15,3,6,20
-4,10,22,91,73,3,3,6
-2,-3,16,-88,-98,-5,-10,-5
-5,7,9,-4,21,-18,-7,-6
21,16,-18,-12,0,9,-2,0
41,9,2,12,38,18,6,7
-49,-13,27,6,1,-14,1,-6
27,-3,-59,17,-27,9,2,9
-15,-10,-17,-14,-34,-5,-17,-10
-128,-18,-4,0,45,5,-5,-41
-40,-17,26,6,-35,-23,-6,-24
13,-2,24,9,-16,7,1,-5
23,-3,-19,-43,-4,-5,2,16
25,0,41,-6,32,6,7,10
26,-2,-58,44,6,-15,-9,4
6,-10,49,1,-2,-20,-9,-2
5,8,2,7,12,37,4,3
-31,16,19,36,5,-6,2,-5
-7,-27,-11,-14,24,-5,-7,-19
-9,-4,13,19,-56,-12,-11,-2
5,11,-3,5,29,-4,-5,3
-13,-25,-17,5,-7,-8,-4,-9
30,14,10,-23,-55,14,10,2
-61,-10,-18,24,-8,-12,-11,-13
-5,-10,-26,-41,-2,-39,-4,0
29,29,47,7,74,43,10,19
25,14,19,14,3,1,3,12
-17,-32,-120,-19,-83,-16,-9,-3
-1,-5,-7,-25,-26,-15,-13,-18
24,-7,10,-1,35,-3,-1,-23
-34,-1,-16,12,6,4,5,-6
8,0,26,21,18,-11,-3,5
47,-2,1,45,7,9,7,7
13,0,-1,-2,-47,-4,-1,17
-33,27,47,32,63,20,1,14
18,-13,-16,-18,-126,-35,-8,-27
-43,-46,-19,30,0,-11,-11,-29
17,22,17,-8,6,0,-7,7
-22,6,8,54,33,-11,-7,-4
30,6,39,-62,7,50,17,14
-1,-11,-46,86,-7,-6,12,20
16,-21,0,-32,-17,-12,-9,-3
6,3,-21,0,-2,-10,-8,-7
20,23,69,44,25,6,1,1
38,-11,-57,-90,-59,-41,-15,-2
84,1,3,4,42,53,13,41
-61,4,4,8,21,-16,-4,-28
-99,-23,-12,13,-71,-4,-8,-63
-31,-13,7,-37,-14,0,-1,-14
44,5,13,-4,13,-6,1,12
35,11,-41,-35,-23,-11,-4,10
23,2,30,41,6,-12,-1,34
20,10,0,14,90,33,4,13
5,6,56,23,-31,-16,-3,3
-20,-8,-84,15,31,24,-5,-17
-3,-11,-26,-53,-65,-13,3,1
-7,-34,-27,5,-87,4,1,-3
-9,-8,37,54,34,-13,-2,-6
-7,6,10,18,55,16,4,1
22,33,18,-32,-30,0,3,6
11,1,-39,-3,-47,-17,-3,10
30,0,61,-9,-17,-11,-6,6
-39,-16,-51,-6,32,-8,-1,-7
-28,-12,-11,-1,16,-3,1,-18
-28,3,23,23,22,9,-11,-29
48,-6,4,-5,-67,0,-6,13
60,-1,10,23,-6,-3,2,-3
-128,-11,-2,-6,11,2,-2,-21
-15,0,3,-15,30,4,2,-4
-10,-7,-6,40,-2,2,-3,3
19,4,25,-89,-8,-5,-1,5
16,1,32,-17,3,-12,-3,3
5,4,-5,4,-17,-8,-4,3
26,3,-12,-2,2,3,8,17
70,17,14,15,12,-6,8,24
-53,-1,11,2,-2,5,-8,-15
-27,-7,-3,-29,-1,10,-10,-18
6,-6,12,-14,14,-5,4,-11
2,-6,-13,5,-27,6,-6,-3
7,4,7,-26,-6,-3,2,6
5,0,0,12,23,-1,2,5
-2,-6,-2,15,-17,2,1,-2
2,2,3,6,37,-8,-1,-2
-3,-10,1,-21,28,32,-2,-1
36,0,-26,24,0,-20,-10,22
31,18,13,26,47,14,13,24
5,17,24,-16,-128,23,7,-15
-33,-8,38,42,40,12,-6,-44
-27,-9,-5,-76,-16,-11,-7,-16
22,-3,13,20,45,-5,-2,16
17,-10,-41,16,22,2,-4,-4
-35,20,-46,-79,14,-17,-2,10
28,8,0,-14,-3,9,-2,12
30,-16,-8,-20,-27,22,-5,-5
-33,-8,-5,-14,-25,-12,-12,-4
42,5,9,30,17,-7,2,-2
-23,-4,19,34,8,3,5,2
22,11,21,-27,-40,3,8,11
24,14,-32,36,57,-9,9,24
-8,-25,-15,2,28,8,-2,-12
-28,-24,-1,-1,-69,-18,-10,-33
14,15,27,22,13,10,7,11
13,17,40,-27,-18,15,1,12
80,6,-14,-12,1,-5,-9,-5
-72,-15,21,6,-26,-10,-11,-17
-60,-20,-111,8,-17,-19,-4,-19
-4,-6,2,-44,-6,11,2,-8
31,3,0,-28,-4,3,2,9
21,3,9,9,18,6,2,7
13,0,5,-24,22,-6,-1,3
10,1,17,40,-21,-1,1,3
2,-7,-6,4,10,1,2,4
13,-10,4,11,1,-4,4,11
2,23,32,3,39,6,2,5
10,33,11,5,11,11,-1,7
7,-46,-55,-32,-71,-4,-16,-27
-105,-27,-41,-7,-15,-9,-9,-26
-21,-7,2,-4,16,-28,-4,-12
54,0,7,3,5,-3,4,3
-11,3,3,-3,6,6,7,7
4,8,3,2,6,5,4,7
1,3,-1,-6,-7,-8,-3,-13
5,0,-2,8,-5,-8,-7,-2
4,3,10,-4,59,-16,-1,3
0,-20,-31,10,1,36,11,10
4,3,3,-17,-23,6,6,27
32,55,88,11,-13,-21,-7,6
59,10,-21,1,-28,3,-10,-16
9,-43,-72,-37,-30,-18,-20,-20
-103,-11,-24,-1,23,-11,-7,-26
-120,-22,11,-14,13,16,0,-33
23,-16,13,16,16,1,2,-2
46,10,14,-14,12,3,3,20
-21,24,20,21,-7,0,2,10
31,15,19,41,18,-11,-1,0
6,-16,-39,34,53,3,3,4
25,10,75,-31,34,19,9,13
-12,-18,-128,-69,-128,-6,0,-3
7,3,-27,7,6,-18,-13,-3
4,1,-6,18,18,-14,-3,-4
-5,-6,-1,-65,-22,-1,1,-2
-4,-1,18,7,-5,-1,-7,-3
6,16,3,-21,1,-5,1,4
-2,10,-7,-4,4,-1,-1,-2
-7,-15,8,11,14,5,-5,-7
-1,-4,-2,-21,-1,-13,-2,1
3,20,15,63,10,2,3,7
9,16,-7,36,17,5,7,16
22,-11,-42,-86,-40,-30,-7,22
73,0,8,-19,81,22,2,-6
-84,-15,-21,-28,-47,12,1,-41
-59,-34,-8,5,-83,-13,-18,-41
24,8,-5,6,2,-10,-8,-1
21,3,4,2,13,-12,-10,4
7,-7,5,28,5,-14,-1,6
19,7,-7,35,25,16,17,20
35,19,59,-107,48,1,2,17
32,13,-18,18,-33,-7,-7,10
-48,-6,17,41,12,-38,-21,-25
-64,-30,-69,-102,-43,18,-6,-32
24,-10,37,44,-20,4,5,-1
-89,6,17,12,-14,-21,-2,-11
21,-9,-19,-27,13,11,0,11
11,-10,-21,-7,-14,3,-4,-2
4,0,4,-15,5,-6,-6,6
29,33,4,-8,11,3,3,9
30,6,56,-16,5,-9,-2,5
36,-29,-128,12,-5,-16,-7,-14
-59,-4,-16,31,21,-20,-5,-5
-1,9,59,33,-8,7,1,-9
8,-14,-12,36,-6,34,1,-5
13,-6,-48,-55,-9,-1,-7,2
21,8,10,-76,26,-22,8,7
10,5,24,-46,-82,-24,-7,1
-5,-10,-17,14,6,-1,-3,-1
-22,-7,38,16,14,0,-3,-12
22,23,22,20,18,3,8,23
30,-23,-81,-2,-9,-10,-9,-4
-20,-34,-12,-14,16,-4,-9,-24
-71,-13,-11,-5,1,-5,-5,-16
31,5,-3,-21,38,-12,3,17
52,38,44,-15,-63,21,1,13
30,15,58,15,18,-5,-11,-7
-38,-22,-103,-7,-30,-25,-10,-2
0,-11,-5,-5,5,14,2,-13
-29,-11,-7,-43,7,-15,6,-6
19,-14,-14,28,24,15,6,8
-20,-11,27,-19,-12,-12,-9,-9
19,-1,22,3,-2,-4,-6,8
18,24,6,20,10,6,-1,7
49,8,-69,-40,-39,-14,-20,22
103,0,6,23,8,12,15,36
-128,-8,-4,12,58,-24,-3,-54
1,-29,3,4,-59,29,-4,-42
53,-6,-7,-29,102,18,-2,10
37,9,8,-22,-128,-26,0,15
16,13,11,19,-26,2,0,3
11,3,-11,23,32,1,0,2
-8,-5,-6,7,27,0,2,2
-10,2,1,-41,16,14,3,3
-16,4,15,22,12,2,-2,-2
-8,-9,-17,6,2,-18,0,1
-10,5,18,-23,-39,-1,-3,1
-18,7,15,13,49,-31,-15,-9
-13,-11,-19,53,-25,55,4,-4
-13,-12,8,-54,-32,14,-1,-9
-7,-16,-15,-18,7,-24,-7,1
28,3,-15,-57,-25,10,1,-2
-49,6,5,10,14,-5,0,-6
-42,-15,4,20,10,-26,-3,-8
33,24,41,24,32,39,9,15
67,-5,-42,18,53,3,1,8
-37,-22,-45,-15,46,19,-19,-33
-34,-5,13,-24,-128,-38,-28,-42
1,-8,47,-13,-19,-8,-1,4
5,16,13,-14,28,8,18,34
97,6,-10,29,29,6,7,-12
-128,-17,28,8,8,-9,-1,-26
54,-4,11,12,6,4,-2,-1
10,3,9,4,8,7,2,6
49,12,12,10,26,-3,-5,13
74,9,-7,-25,27,3,5,16
-97,-21,-22,26,-35,15,-1,-19
-30,-27,-24,1,-4,8,-7,-26
29,7,-1,-18,-13,-6,0,12
21,7,-12,-37,21,-1,2,5
11,5,-13,-11,-19,-9,-2,8
-2,-6,11,20,-1,-2,-3,-4
-6,5,-3,0,-11,5,-6,-8
-8,-14,-5,-16,16,-7,-14,-10
-1,6,9,23,-33,-6,2,5
25,-22,-42,24,29,-8,-5,6
9,21,25,-40,-36,3,5,11
-42,19,7,-9,42,11,10,-2
-8,-33,-67,-49,-31,-15,-14,-20
22,-14,-52,11,8,-5,-6,-9
-50,-13,-4,-22,6,25,3,-7
6,4,16,-5,12,1,3,2
26,14,14,-5,-19,-4,0,25
54,5,17,32,-2,1,1,3
14,10,-15,-42,75,-8,-8,-14
13,-26,-14,-33,-73,-6,-9,1
43,8,0,-27,-1,-6,6,30
30,-7,-1,31,-31,-11,-15,-11
-108,-10,0,4,26,23,11,-22
-25,-21,-10,-19,-17,3,-2,-37
32,1,-15,10,27,20,3,4
29,19,2,-5,27,-6,-14,1
17,-15,-12,-37,-70,-25,-12,-3
17,3,24,39,-15,32,10,19
20,36,55,20,43,-8,5,11
2,-4,-2,-17,-29,6,4,3
-5,-13,2,-25,-30,-25,-5,-7
-30,-8,6,18,11,-9,-5,-9
62,6,11,-21,39,29,5,8
-33,-11,-27,-3,-69,6,-3,-15
-83,-17,1,-32,-57,-9,-6,-16
-41,2,19,13,29,-25,-13,0
45,-2,5,39,-39,17,9,19
37,13,26,42,32,7,-4,2
-83,-20,-46,-49,-25,3,4,-19
6,-11,-30,-81,53,12,-9,-7
17,3,18,39,-1,-1,-6,4
-4,-1,12,9,-51,-21,-3,2
10,4,-23,3,-39,-3,0,-9
-33,3,26,21,51,20,0,-22
28,-5,-10,17,-28,-24,-12,3
31,-9,-5,-15,22,-1,3,7
-73,10,21,9,19,36,17,2
22,47,53,-21,16,4,7,10
1,-36,-128,34,-8,-28,-10,-11
8,14,24,9,5,3,2,0
5,-28,-15,-61,-26,1,2,5
2,-18,-38,-1,58,0,0,15
-11,-6,-10,14,-39,17,-2,-5
-1,14,64,-43,-8,2,-2,-12
-7,6,43,36,9,4,5,-2
-36,-31,-41,-44,-15,-9,-2,-3
15,15,22,-10,3,1,0,-5
47,25,21,-37,62,7,4,8
-23,-14,7,4,-91,-19,-8,1
10,-2,24,31,3,-12,7,6
44,21,2,6,71,13,-7,-5
16,-13,-27,3,-72,-2,-10,7
41,-10,12,16,45,26,9,-12
-128,4,6,-4,-17,2,1,-24
6,-30,-26,-15,-44,-25,-7,-28
38,9,-1,-2,-5,-5,-3,16
39,7,5,-11,57,10,9,6
0,-11,8,95,9,-6,-4,-8
11,7,8,9,8,2,3,3
29,5,-3,18,70,-32,-11,1
5,3,4,-85,-87,5,-6,4
8,-6,29,5,10,-16,-10,-4
-70,-11,-59,10,11,23,3,-15
-3,3,20,45,-11,7,-1,2
8,2,-12,-39,46,-9,-6,7
19,0,29,22,-2,3,4,-5
22,-25,5,-7,-24,3,-4,-5
19,8,5,-13,-21,-13,-1,11
-79,7,-59,-38,4,-14,1,-10
24,6,17,93,-4,-12,-7,-15
-40,-48,-13,-71,-4,9,-7,-30
-2,-5,5,-23,15,-4,0,2
36,4,20,0,21,-13,2,14
20,14,-10,-7,23,0,12,12
1,0,-24,-73,-18,-8,-5,-1
18,-6,31,34,-25,-2,-5,10
19,0,-25,40,61,-11,-7,-1
-25,-11,-13,-15,-9,3,-2,-12
-6,-15,6,11,4,-9,2,1
48,23,7,24,-69,-11,-1,8
15,36,18,-25,9,15,4,12
30,-24,18,-20,-30,4,-12,-13
-24,-23,-35,-17,-24,-6,-7,3
-11,-9,15,-14,29,-3,-6,-31
-94,-5,-5,-10,5,-11,-3,-19
70,2,21,114,-29,5,8,8
-64,3,1,17,10,18,-8,-6
-6,10,18,-6,-16,-13,7,7
18,-2,6,10,-15,-17,-2,3
19,-1,-11,5,21,-4,-4,5
5,-30,-92,-17,-18,-13,-11,-14
32,9,-4,11,79,19,3,-6
1,10,15,40,-47,-3,0,0
-14,6,19,-13,-26,-14,-3,-4
6,4,-10,-50,-3,-3,-1,4
2,0,21,58,4,-6,-5,2
16,2,-8,-20,25,-5,-6,-4
-10,-14,0,42,-15,-17,-6,3
-13,5,7,-6,7,-3,-3,-12
-13,8,-36,-7,-21,15,-2,-18
26,-15,7,-6,-27,5,0,-3
-21,-1,23,16,34,-44,-5,10
-6,18,23,-11,-25,42,11,1
-5,0,-17,35,16,9,2,-5
-25,-2,19,-75,-6,-6,-6,0
-13,-40,-128,-105,-51,-7,10,15
66,11,25,12,38,3,2,-2
-3,12,15,16,-13,0,-7,-9
-12,-17,17,15,-1,-23,-15,-14
-10,-10,6,-27,-23,1,-19,0
2,-11,-57,0,58,6,-3,-13
-12,3,16,-3,-123,5,9,-3
-20,5,-4,12,10,1,6,3
55,6,-9,-3,17,-3,-6,1
5,-11,32,14,56,4,1,-2
-11,12,-3,-36,-61,-20,-3,1
9,6,36,9,-48,-13,-9,-1
4,-12,-1,-18,-6,-16,-4,0
-19,-7,-6,71,66,22,4,-8
-24,-20,36,0,-21,2,-8,3
28,-29,-128,11,11,-17,4,5
-6,22,22,-7,12,21,11,0
-47,8,21,-6,24,3,-6,-18
17,-14,-29,-27,0,-14,-23,-11
-49,-19,-26,-60,-27,-2,2,-14
15,4,33,-17,-22,-10,9,10
35,14,26,23,25,18,7,13
36,-5,33,34,11,-8,-7,6
-46,11,-29,-1,-16,-5,3,1
46,-8,-29,-10,33,-10,0,-1
-1,0,24,-15,-36,21,-1,4
-58,6,5,33,43,1,3,0
-31,-9,5,8,-9,-1,3,-5
-13,-20,-20,-27,-107,3,-4,-13
30,21,21,-7,19,-41,-6,-11
33,20,-6,7,34,3,-4,0
20,-8,-16,-84,-36,2,0,8
-50,-20,-11,4,9,-3,-9,-21
-15,-2,11,-28,9,6,3,-7
8,-5,18,0,-35,-5,-2,-1
25,23,9,16,33,-8,-16,11
7,8,23,1,-35,5,1,4
-24,-15,-20,-17,0,-10,9,8
43,-16,-46,-4,3,-33,-5,2
-14,-5,24,34,27,44,7,-25
-107,-6,-7,-34,82,26,-2,-14
12,1,26,-2,-68,-10,-4,-3
23,-5,-27,1,31,5,4,11
47,4,-3,-5,-1,2,5,20
4,-10,-7,10,-37,-6,-4,-1
-32,18,15,-6,1,-4,-4,-5
9,15,12,8,32,-1,1,-11
-54,-7,22,-61,-63,-20,-13,-17
9,-16,-24,11,-26,16,-8,-6
-2,-12,-25,-9,41,9,7,11
18,13,26,37,29,5,15,8
-27,-7,-17,-58,-68,-9,-3,2
-5,-16,-21,-22,41,-11,-6,-9
30,25,27,-3,18,2,0,8
29,6,-4,9,26,-3,-2,7
34,-1,-10,2,-38,-1,-7,-3
-40,-9,16,15,40,-18,-10,-31
-2,0,10,-20,40,25,0,-14
-41,13,38,15,-31,-18,-2,-9
34,-11,37,-72,-27,0,-7,16
22,-30,-128,72,-15,13,3,5
-11,-11,-46,-26,-10,-9,-2,2
8,16,17,-6,-14,-1,-2,3
8,6,51,4,19,8,4,4
7,1,12,5,42,-9,1,2
-20,-12,-3,4,-38,-3,0,0
-3,7,-3,31,-6,4,1,-8
15,11,4,-15,23,6,7,0
-5,14,61,34,-6,-14,-17,4
18,-21,-74,-16,-25,-43,-23,14
7,-4,-43,-74,-54,13,6,-11
-67,-20,-6,-33,-1,9,-4,-28
-28,-7,7,-15,-6,-7,2,-19
4,-3,15,18,29,-7,4,2
38,6,-4,4,-31,6,3,7
20,-3,3,14,-4,-12,-1,6
8,-1,11,-1,34,-2,-3,8
42,16,1,10,-7,-6,-2,7
-11,14,57,9,-33,9,-2,-4
-19,-9,-28,20,22,-16,-17,-30
-109,-24,-37,-12,-50,-29,-12,-10
-63,-19,-32,16,53,14,6,-4
28,-16,-1,-7,-38,-4,3,4
-17,27,38,-9,21,-4,3,1
-3,27,25,31,-15,4,9,3
17,-20,-42,-7,21,3,-3,-2
19,15,11,-5,24,34,9,16
10,7,12,16,-39,-11,-2,20
51,-3,-17,-68,43,-16,-1,0
-69,-4,11,-21,-48,2,-7,-34
-42,-21,-41,33,-18,-4,-11,-13
5,-8,-24,-68,-22,-29,-9,-5
53,3,-11,-26,0,22,8,7
-16,2,6,9,-2,-28,-13,2
-56,-14,-6,-26,6,-4,1,-4
9,4,-3,69,34,24,14,-7
-23,3,49,-18,-2,-12,0,-5
13,-4,7,38,-31,3,-19,-12
8,-4,-14,-28,12,-24,-10,3
10,5,7,10,-9,-8,-5,3
-2,-7,62,-108,-3,-17,-1,-2
-1,-16,-128,3,0,-2,-1,3
4,-5,-46,-9,-60,0,-7,-8
14,7,-9,-3,0,-3,1,1
14,-12,8,68,8,-10,-6,-8
-29,-3,30,16,9,-2,-7,-12
-8,-11,-61,-76,-10,25,1,-8
16,1,-7,13,27,10,-1,6
32,6,7,6,-65,-3,1,10
-8,-3,12,61,3,-5,-4,-6
-29,-8,5,13,65,-17,-11,-8
25,-8,-10,1,-15,-21,-10,0
-34,-5,-8,39,-17,-4,-2,-18
-53,-12,8,-23,-41,12,-1,-14
95,14,-7,7,11,2,8,15
-63,-20,-6,-85,4,4,-1,2
6,5,13,46,6,-1,-8,-15
3,6,1,-23,24,-12,0,-1
1,4,7,-20,-11,11,-6,3
2,-5,-31,-2,43,-6,-12,-3
4,-11,11,37,10,-10,-4,-3
12,-1,12,-18,40,0,4,5
6,19,-4,8,10,7,-1,0
-2,7,19,-6,-128,-22,-3,-6
14,-9,-1,-37,-8,9,-7,4
-6,-18,18,35,24,-12,1,6
-15,-23,-128,11,65,9,-7,-12
17,7,3,-16,-72,-2,6,-5
31,-1,5,-28,-17,14,6,7
-71,0,9,-3,50,4,-9,0
16,2,22,24,-22,-13,-3,2
23,1,10,19,24,-12,-9,-8
-9,-1,-1,5,4,-9,5,-15
1,22,17,35,6,6,4,11
-6,-2,-4,-18,42,6,-13,-6
-128,-31,-15,-32,-47,2,-2,-24
42,-16,-16,-5,3,-13,-6,-21
24,5,4,8,-9,3,-5,-1
27,10,5,14,-25,-11,0,15
22,-13,-29,17,20,-12,5,10
12,20,-7,46,70,5,4,11
13,30,54,-1,22,-11,2,3
-17,-24,-83,16,-23,19,-5,-15
1,-18,8,23,-8,-12,-11,-9
-23,-5,1,37,-35,11,2,0
3,-1,-3,-29,-9,-29,1,0
8,-1,-4,-13,9,4,-2,4
4,1,2,13,36,-8,1,3
0,-2,53,7,-6,7,2,3
1,-12,-127,0,-40,-4,-6,3
24,10,15,30,0,3,-5,19
57,-13,-24,16,12,-17,0,-6
-112,-2,4,-70,-5,26,-4,-29
11,8,8,18,-23,10,0,8
-57,-12,7,-27,2,6,-3,-9
9,-27,-23,9,-1,-34,-9,-26
9,1,1,-22,10,11,-1,-13
25,2,10,1,-13,7,6,14
17,-5,-36,19,106,2,7,5
20,-12,-10,5,-57,-36,-9,13
-26,13,2,-16,-43,-15,-16,-4
12,6,18,18,-26,1,8,14
-7,-8,11,-1,-2,14,2,-13
-37,10,0,42,20,3,-12,2
69,-4,33,36,14,-6,-6,-6
-63,-12,-23,-13,-7,-14,-5,-9
11,-6,-21,-15,-13,4,-4,-5
20,-9,47,13,46,8,5,5
-7,-6,-87,0,-56,-5,8,7
6,19,35,15,42,0,4,10
-18,-3,12,7,-12,9,-4,-8
11,8,-7,-3,9,-27,-16,-6
19,7,11,30,21,5,-4,-2
-1,-7,-7,-35,-83,-11,-3,-1
-44,2,-3,-9,-52,14,6,-4
27,-5,-4,35,127,5,0,18
10,-3,0,-3,-91,-21,3,-1
-49,-8,-2,18,-9,-1,-3,-9
43,-6,15,11,-19,2,0,4
-7,35,17,34,48,-6,5,7
1,-1,4,-50,-7,16,-6,-10
-23,-20,-82,-37,2,-3,-5,-26
84,3,7,-5,-59,0,-6,5
-60,0,14,-28,-4,0,-1,-3
-1,-17,12,51,26,-11,-13,-27
13,0,11,11,9,3,7,4
19,7,10,8,-3,8,5,19
4,-2,-3,-10,-43,-10,7,3
21,4,0,23,-3,-1,-10,12
41,5,12,17,10,-10,-14,12
-15,15,33,-32,6,-13,16,-9
-20,11,13,-32,-2,30,2,-5
5,-25,-28,28,-44,-30,-11,-3
-14,-5,8,-10,34,27,5,-6
-11,2,11,3,43,5,8,0
7,6,22,3,-84,-12,-7,-3
-5,-5,23,25,20,-21,-6,-4
-4,-5,-51,-10,19,-2,-1,2
-2,-2,4,-1,-10,-2,-5,0
-1,0,3,-14,51,6,1,0
-1,-6,4,-21,-105,-2,-1,-7
-1,-3,11,15,47,-10,0,6
0,4,2,87,2,6,-2,-1
16,16,-15,-50,11,-17,-6,6
16,6,-2,-43,29,3,2,7
-20,-2,-19,-37,-85,2,5,-10
-12,-19,-25,-1,-7,-7,-11,-8
3,-4,4,25,-54,-7,-11,-17
-67,-10,-7,-92,34,-2,-7,-20
-27,-9,8,60,29,-3,-5,-11
-66,-8,-19,3,-29,-5,-3,-9
34,19,23,54,17,0,6,6
34,6,7,-30,-15,0,-7,13
7,5,-1,26,22,1,2,6
6,-16,-14,19,34,6,1,7
15,-4,-17,-54,-9,-5,-3,9
15,2,41,25,-61,-7,-3,-1
-70,-3,58,8,2,-13,4,-18
-7,-10,-114,44,9,-5,8,-10
24,10,5,-37,10,11,-7,3
40,13,-23,-22,9,-5,-4,22
-27,-12,-17,-1,-6,-7,1,-4
-2,-9,18,-20,1,-4,-2,-10
34,5,54,62,-3,2,3,-7
-64,-7,-22,-11,70,-1,-2,-23
-17,-12,-4,0,-60,4,-5,-7
32,-10,3,15,-33,-23,-8,1
1,4,-23,-20,-13,-3,-5,-2
11,-16,-2,-5,37,15,2,7
10,1,8,-9,8,-3,-1,5
13,8,8,-41,-2,-10,2,4
-1,5,16,24,7,-16,0,-1
7,-4,-14,5,32,15,5,11
40,4,12,34,-60,-2,7,13
-30,-4,0,14,4,-16,-8,-10
-5,7,35,54,0,-18,5,-6
-60,-17,-57,-54,-9,-5,-10,-27
-23,8,38,-9,18,1,1,-6
40,-13,-8,-53,9,-26,-2,12
-1,1,-9,-6,-128,-12,-5,9
-39,1,14,65,46,11,-6,-8
105,12,13,-2,-42,1,7,2
-79,-7,6,-10,44,-12,-19,-17
-12,2,-15,0,2,5,-8,-5
-7,-15,13,0,-8,-4,10,6
26,6,36,-39,-16,12,11,12
3,-3,-29,42,-14,1,2,3
-24,10,-28,-56,20,-2,4,1
3,-26,0,14,4,-4,-6,-2
3,-6,19,-11,21,-6,-7,-6
5,6,-8,-12,-10,6,7,-2
4,7,5,-5,-28,0,-3,2
-2,-6,-13,25,7,5,-13,0
-5,-5,-6,-40,8,1,-1,-4
5,1,-1,-6,-15,1,12,-2
8,-4,10,34,24,-12,4,13
19,-19,-24,-36,20,0,1,6
67,30,35,-29,-7,43,11,30
-82,42,78,24,-57,-8,-15,-31
-47,-46,-87,-51,-37,-37,-34,-58
42,-26,13,-5,-50,-32,-6,1
11,-12,7,16,100,1,-6,-5
-25,-9,18,74,51,9,4,-10
30,-2,17,62,-21,-4,4,5
-36,4,20,-71,-8,-10,0,5
16,8,-3,-11,22,5,-2,10
51,11,-13,31,9,2,-1,29
37,9,-13,-5,-22,4,-3,18
-10,-14,-5,15,12,-16,-8,-27
-107,-17,53,-8,-4,16,4,-31
9,-1,-20,2,59,2,7,-8
6,-8,-27,-7,-41,-4,-3,13
-9,-9,-10,40,-69,-10,-9,0
4,1,6,-54,0,-1,5,7
13,12,58,15,6,-24,-5,6
-13,-22,-128,-3,27,9,-17,-17
-1,-7,-18,49,6,27,4,1
-4,-13,-13,-5,5,-12,11,-5
7,26,36,-2,12,8,-3,8
40,21,21,-29,-70,5,-6,23
-11,-18,-61,0,16,-2,5,-5
-75,-22,-26,-19,-12,-3,-12,-34
20,-8,0,19,18,1,-1,-7
31,4,7,-9,-20,0,-1,5
-7,-1,6,-3,0,-5,-1,4
41,-3,3,0,33,3,3,-2
-84,-4,0,15,25,6,1,-3
12,-10,-1,40,-38,-21,0,1
18,12,-3,-80,65,-17,-2,9
35,43,85,50,-56,36,13,21
46,9,-1,-3,-30,-22,-13,-3
-101,-52,-90,-43,-91,-26,-18,-25
-59,-21,25,-3,-1,0,4,-11
0,-7,16,37,41,-1,-2,-11
16,26,23,32,23,13,6,-3
83,20,7,-17,1,2,5,17
-21,-4,-14,-27,-3,19,2,7
21,-6,-6,-16,2,0,10,-3
-102,1,-8,3,-34,-8,-15,-12
60,5,-2,51,56,4,-11,9
19,12,6,39,31,-1,-1,8
-25,-37,-44,-9,0,-37,-1,-24
-96,-2,1,-45,-33,21,6,-5
21,-7,-2,-19,-8,-16,-18,-17
51,-1,-9,33,-17,-2,-4,8
32,6,-4,-13,-1,-13,-1,17
20,6,-3,23,5,-6,0,1
-11,8,10,-29,-57,7,3,3
-8,-9,43,32,63,1,0,-7
-19,-12,-42,11,-42,-7,-6,-26
22,19,-32,26,61,-4,-8,-6
-7,-25,-17,-11,-25,-18,-19,2
7,6,32,31,33,-4,7,3
-12,-11,-29,18,-100,-12,-2,4
-9,4,5,1,17,27,9,8
9,13,17,-53,24,-11,3,-1
77,20,19,10,29,14,7,8
-80,-18,-30,-22,-32,-6,1,-12
-50,-4,0,-12,22,14,-7,-13
-6,1,4,4,-41,7,-4,-8
24,1,0,-30,10,-6,2,23
26,3,-2,9,27,-2,-2,8
112,10,-2,31,-8,-9,2,15
-128,-4,6,2,20,-3,0,-20
-90,-27,1,-1,11,-18,-10,-38
19,1,18,34,-14,16,-1,10
26,-2,-24,-23,-16,-4,-13,-1
6,-11,-4,-15,-1,-13,-2,-2
5,2,65,-1,-19,-10,-4,-8
-4,-26,-128,21,38,-8,-2,-6
12,2,-3,1,-34,-8,-6,4
4,1,24,0,-22,10,2,3
5,6,32,25,-42,-2,-2,4
-1,-10,-1,-13,5,-26,-11,2
-3,-1,17,28,81,41,10,4
0,14,18,14,-66,-1,14,2
-4,3,-77,17,-15,5,-10,-13
0,-12,-25,-46,5,3,-6,7
-1,-6,5,-18,-13,-4,1,-15
-21,-6,10,-5,48,4,-8,-6
22,-3,5,10,-24,-7,-4,-5
-69,-7,23,13,7,-12,0,-6
-3,-8,-57,-12,24,3,-4,1
4,3,-3,-32,55,8,4,6
-3,4,7,-3,9,-9,0,2
22,0,11,-2,-112,6,2,15
71,10,10,27,10,-2,6,24
62,16,46,-16,22,4,-12,-20
-128,-27,-18,31,6,-11,-16,-45
-87,-23,-32,-65,1,-6,-3,-12
50,0,17,-2,-3,-1,1,19
29,13,6,9,29,-1,4,2
19,3,9,-3,-7,13,11,9
-38,-8,7,3,0,-16,-8,-4
-14,-10,-5,7,-6,4,-15,-20
12,1,7,-5,10,-18,-8,-6
6,4,-19,-18,-16,2,0,1
9,-8,8,28,9,-8,-4,-6
1,8,-5,-20,-28,20,1,9
3,4,20,2,10,2,7,6
13,-7,9,9,-2,-11,7,5
1,15,-34,-25,-37,-23,-4,-3
-39,-11,13,35,9,11,0,1
-9,-16,-1,-19,10,-10,-5,-7
-28,-8,4,-5,-13,-9,-8,-6
15,4,7,-4,75,13,-1,1
-1,-1,7,3,-37,1,0,-5
-20,0,2,0,21,-12,-4,-14
-15,-6,-8,-43,-64,-7,4,0
17,6,5,-1,21,-9,18,13
2,-10,-18,-47,43,14,-2,5
30,-1,66,4,-58,-7,-16,9
35,41,-92,-5,2,-5,2,1
-21,-24,-23,-20,4,-11,-15,-25
-128,-55,-65,3,23,9,-8,-33
4,2,23,22,-40,8,3,6
70,8,8,-27,15,0,-4,5
-6,2,19,6,15,-1,3,3
-41,-1,-7,5,30,22,0,-13
-27,-3,4,25,-8,1,3,-3
16,-1,-2,24,9,-17,2,6
15,3,0,-53,-11,12,-5,13
25,-2,-1,-15,-1,-12,-1,11
31,2,6,16,49,-8,13,18
-25,25,69,-12,-42,-2,5,2
-47,13,-94,11,-71,14,-9,-35
-11,-44,-15,-24,-11,-10,-12,-20
-8,-27,-22,23,-5,-11,-4,-11
27,6,17,-14,41,-7,-2,11
13,13,19,2,20,4,9,12
25,6,4,21,-23,-3,9,27
6,6,1,39,47,14,-7,-6
-32,-8,0,-54,-80,1,-14,-29
21,-3,6,-30,11,-12,1,2
-15,1,-21,-1,-3,-43,7,-2
-11,-1,-1,53,56,48,5,-9
15,0,19,-4,-58,-4,-4,9
-4,-16,10,-5,-2,0,6,4
24,15,-40,-15,-10,-11,-1,0
9,14,17,9,5,-8,-6,2
-2,-2,-5,-34,-33,-2,-2,-3
13,1,7,57,-2,3,10,18
33,-14,-27,-59,-38,-15,-13,4
49,4,-9,102,47,-5,0,17
-84,22,62,-17,10,15,9,-29
-128,-17,-2,-54,-16,1,3,-23
-1,-27,-112,-33,-19,-2,-14,-27
-10,-8,12,1,-11,-17,-4,1
44,1,7,6,-3,10,-3,13
23,4,5,-8,43,5,8,14
19,9,-2,35,-34,-8,-6,9
9,-12,-9,-2,-39,-15,-10,1
10,1,-3,21,14,12,5,14
-6,17,13,13,35,-12,6,1
-4,-2,55,-22,30,-10,-7,-8
-9,-1,-2,-39,-37,9,2,-14
22,-6,-77,38,-17,-4,-7,-8
-70,-12,-21,-15,-58,2,-10,-7
-3,4,11,8,-4,-1,-3,-8
28,9,18,-43,40,2,2,-5
-57,-3,22,26,-44,-12,-2,-7
4,7,35,-118,-45,0,4,5
-2,-13,-13,-11,57,6,-3,-4
8,-8,-64,-19,-43,-8,-1,10
24,12,29,58,58,12,10,12
-10,6,14,-25,0,6,-1,-5
-55,-7,1,-10,-11,-11,-14,-21
19,2,16,9,-16,7,4,-1
11,2,7,1,-2,-14,-2,0
19,12,12,11,8,-14,-5,1
0,-2,-18,5,-22,26,1,4
3,5,5,16,7,-6,4,7
19,19,21,-23,54,-7,7,17
61,3,22,42,-74,-22,5,6
-128,-31,-81,-42,-1,-8,-8,-12
2,-14,-2,-19,-45,-10,-13,-40
-3,-22,8,-31,-41,-4,-28,-37
13,0,-48,-13,46,22,-1,16
10,3,0,15,33,19,5,13
23,4,13,26,-11,-3,2,20
87,18,9,-6,12,5,4,16
-21,1,1,2,-34,3,4,3
-84,-20,-3,-40,5,8,-1,-12
-50,3,4,-7,1,-2,2,-1
29,14,-13,-8,-3,-1,-5,-15
-52,4,-7,-16,-14,-6,-3,-10
16,-2,60,35,7,0,-1,4
15,-9,-57,-24,4,6,-1,3
10,7,-2,-17,-26,-12,-5,2
7,1,-14,-9,8,14,4,-4
-3,-9,-7,10,2,-3,-3,1
-9,-4,2,-1,54,-14,-5,0
4,-1,3,-11,-104,19,4,3
17,-1,0,14,81,23,2,-3
30,5,10,-9,-43,-7,-1,20
32,31,12,26,17,1,9,13
-66,-1,42,2,22,15,-6,-22
-73,-49,-128,-101,5,-14,-25,-30
39,-12,-7,-41,-70,-21,-22,-24
-76,-6,4,-6,-16,9,-5,-16
7,4,9,-12,4,0,1,-2
16,9,61,31,-12,-14,7,18
11,-7,-128,17,30,12,0,8
9,6,5,26,20,9,-10,4
5,0,19,-45,-21,-6,-6,3
20,0,-10,16,14,5,13,11
17,-5,15,-84,13,1,8,2
-13,-20,-28,-18,52,16,-4,-10
-21,29,28,2,-94,-12,-5,2
-44,-12,-14,-2,-61,-30,-17,-13
-40,-15,-32,3,-21,22,-15,-16
5,-9,1,1,44,6,0,-11
-3,-10,1,41,-2,11,8,0
31,-3,5,-11,0,-9,-2,3
8,-1,4,-3,10,12,4,10
-15,5,7,-2,20,-13,1,3
-6,2,4,-31,-5,30,2,3
-5,-3,-3,18,19,-12,-2,-10
8,5,8,6,4,-7,-7,7
17,18,-3,-16,-29,32,6,-1
-37,-30,-19,-6,-7,-5,5,3
33,-7,3,-6,20,6,-2,1
40,-1,7,-55,-14,-17,-13,-9
-34,-1,23,20,-26,-5,3,-8
3,5,-4,10,-25,3,-14,-5
1,-4,-39,-8,6,-5,0,-2
1,2,-6,10,1,1,7,4
4,1,1,-26,-8,-1,2,2
3,-8,3,16,-5,-3,9,0
1,-12,-15,-5,-25,-6,-7,-4
4,-8,19,13,17,-11,-8,0
1,27,91,26,24,-2,7,3
12,34,-16,46,31,16,10,6
7,-16,-6,-11,-60,1,-9,0
50,-12,-8,-30,-112,-36,-1,37
-41,-4,-5,8,53,-8,-2,-16
-92,-24,3,4,-48,-14,-20,-54
-75,-12,7,20,71,5,-2,-27
11,-6,-1,10,48,3,-1,2
35,7,3,-3,-27,-14,-2,7
21,7,0,-1,-16,9,0,11
14,2,-10,8,5,11,3,11
6,1,10,5,27,6,7,8
11,12,13,-9,-35,-22,5,14
31,6,2,1,5,-6,3,9
27,-5,16,-26,13,9,-7,-12
-86,-1,10,5,-21,-3,-11,-19
-26,-21,-66,-27,7,-14,-13,-23
14,-12,10,23,46,7,7,11
34,14,16,-34,-40,-4,-6,1
-2,4,-3,-6,-9,-3,-9,-13
-21,3,26,23,81,-2,5,-5
4,-17,-28,-55,-103,0,9,3
3,-5,3,-12,6,-4,-10,-1
-2,0,-4,9,-4,-5,-12,3
6,8,10,14,30,-16,5,3
3,-4,-10,-4,-16,3,5,5
-2,3,-2,-12,-9,22,1,0
7,5,-2,-5,10,19,1,7
-13,11,50,-19,12,-34,-6,-5
8,-15,-25,-3,10,22,-3,6
60,-5,-20,-4,-30,-4,-6,-16
-128,-10,-5,11,15,-16,-8,-30
-58,-10,11,12,-2,21,4,-6
10,-6,-18,-26,-12,-1,-10,-4
14,2,-9,7,-17,0,0,-8
24,8,31,28,35,11,10,16
22,-8,-60,-28,-55,-23,-10,3
-5,-21,12,39,-14,-8,-5,-9
15,8,35,-6,60,25,21,24
29,36,35,59,24,4,-5,8
0,-21,-52,-64,23,0,-12,1
-39,-15,-21,-18,-16,-6,-3,-35
-1,-1,44,-5,-46,-9,0,-15
9,6,24,15,-58,3,0,6
-70,-9,-16,-22,-42,-14,5,-6
18,-5,-7,-4,52,17,5,1
-3,-6,3,5,36,1,-16,8
18,5,41,9,-3,-8,-1,-11
-10,-11,-87,-62,-12,2,-1,-6
44,16,20,48,11,-24,12,23
25,-5,-7,-1,-1,30,4,3
-86,1,0,22,11,2,-3,-17
21,8,1,-38,17,10,-4,-8
-30,-12,10,44,-29,-7,-8,-6
-43,-5,-8,-17,-17,-3,-4,-6
9,-4,24,-1,10,-9,-2,-7
18,4,-13,22,-7,-10,-2,5
35,-5,-31,-33,55,3,4,16
45,15,0,15,-36,2,1,1
-100,-19,1,-10,-34,-3,-4,-18
27,-2,15,-9,-43,-21,-6,-15
-21,-4,11,-4,-31,12,-7,-11
21,5,4,7,-19,-8,0,7
-2,8,-6,4,20,-6,3,10
35,8,-9,5,6,5,6,22
15,-3,19,-13,3,-23,-1,0
-39,10,-1,-4,20,20,-2,-25
-53,-11,-15,0,55,4,0,-17
17,6,-55,-6,-15,-4,5,5
49,-4,4,13,-43,-2,-6,2
-78,-5,66,-1,-8,-6,-10,-20
24,-12,-56,-19,5,-4,-1,9
41,1,-25,-40,-27,-6,3,17
-61,-13,16,42,31,-4,-6,-13
-26,3,2,-4,12,21,-18,-6
-10,19,3,24,19,-3,7,5
9,-9,2,-2,96,-2,-4,-9
11,3,18,7,-128,-20,2,6
13,2,-12,6,-6,9,8,9
6,-4,2,-9,55,-7,-1,0
-5,-9,25,10,47,-9,-8,-8
1,-2,-75,-14,7,-15,-5,4
13,4,36,-8,-29,25,0,6
0,13,21,3,-6,-25,-2,6
67,-9,-33,-5,27,25,4,-10
-128,-4,27,-5,9,-8,-3,-20
1,5,10,-12,-5,-13,0,-13
17,-4,-1,-22,-14,-16,-9,2
13,-8,13,-18,-22,-15,-1,-2
-6,-6,-17,28,34,22,4,-5
3,-4,15,-22,-1,-4,-2,2
25,11,22,24,24,6,-1,11
4,6,-3,-13,-40,-39,-4,9
26,-14,4,8,8,3,-2,-7
-30,1,0,24,-21,-2,-1,-9
-48,-5,-5,-70,-17,-7,-8,-6
20,4,14,-38,-53,-7,-7,1
-25,1,-32,91,9,8,3,1
11,-11,-20,-45,8,-15,-3,-13
-128,-15,-8,-33,-9,4,10,1
54,13,-2,-7,55,8,-3,5
-52,-5,19,-35,-52,-10,-5,-13
22,14,14,24,-10,1,6,10
-15,-46,-44,7,-16,1,-3,-14
-14,-16,-6,-26,33,-3,-13,-8
24,19,7,3,-26,-6,-9,10
8,6,6,-10,10,0,0,1
2,-3,0,-6,11,3,2,2
2,5,9,-7,-30,-8,0,-1
-2,2,0,8,0,2,7,-1
-2,-2,-3,-8,5,4,2,1
-2,-6,-2,7,9,-4,-5,-3
20,-5,-2,-4,-4,-7,-7,-7
-12,3,17,7,6,6,3,1
-15,-2,-17,-3,2,-6,-4,-8
-5,-3,-9,-4,-4,-7,-7,-4
11,2,5,-3,-4,9,10,14
70,11,-5,-1,0,-5,-2,19
27,-8,-19,3,26,-4,-3,-18
-128,-8,1,5,48,4,-6,-33
26,-9,33,-20,-96,-6,-6,-14
24,-7,-15,-8,1,-13,-6,-4
25,-3,43,13,28,1,-5,5
20,-6,-72,-10,-5,-3,-5,5
8,5,-1,2,26,0,0,8
21,9,32,7,15,3,7,11
8,-4,-47,-2,-26,-3,-4,-12
-70,-8,-5,-9,-17,-9,-8,-30
-25,12,25,16,7,9,15,7
-57,-15,18,-2,18,-7,6,-9
-20,-5,-13,2,-25,-8,-22,2
6,-2,-20,7,16,2,-12,-6
-3,0,-5,-50,-11,-3,7,-5
-1,-1,18,68,-2,0,2,-6
14,7,6,-47,12,9,7,7
10,3,-54,-18,23,-10,1,6
33,-11,18,36,-40,19,1,3
-103,-19,-1,-47,44,-1,-11,-14
-40,11,8,-6,-47,-3,-7,-4
-40,-9,2,93,-30,-36,-17,-12
11,-12,-23,-84,-45,5,-7,2
42,6,51,-14,21,7,12,16
-4,19,11,35,12,13,4,1
-37,-20,-128,42,50,-15,0,-15
-8,-11,-3,26,-25,-10,-5,-16
16,14,36,-10,0,8,4,14
44,4,-7,-6,57,15,-4,19
13,-15,-56,0,-5,-13,-4,-1
-51,-7,19,-19,-52,2,0,-31
8,-5,14,16,-11,16,6,1
-13,-2,-2,-17,-2,-4,1,6
17,13,6,15,83,14,5,14
53,1,-6,-3,-14,-24,-1,6
-56,-4,-8,-2,-66,30,7,2
-64,6,18,-6,7,-6,-10,-20
-128,-2,47,3,23,4,0,-27
-10,-21,-6,-6,26,-4,4,11
49,6,-17,0,4,8,7,21
35,10,1,-14,-24,-6,-11,-10
-19,-7,-11,11,0,-19,-3,-14
-29,-8,16,-22,-14,26,-16,-15
17,7,6,9,23,1,2,2
12,-5,1,8,14,-11,1,5
19,-2,10,-6,1,10,7,9
20,14,64,-2,24,-17,3,12
-7,17,-50,-4,-74,7,2,14
7,-2,-47,-128,47,39,0,5
-3,-1,29,44,-112,-32,-10,-6
24,-8,11,38,10,-1,-5,-16
-123,-9,5,-20,18,0,-5,-20
74,15,38,33,48,-1,3,4
-23,-5,21,-31,-30,-1,10,-2
-24,1,-2,-31,-7,2,2,4
20,5,24,21,-11,6,-7,1
6,-3,-7,-16,4,-14,1,3
47,8,6,27,-23,-22,-7,7
-36,-4,2,9,60,28,1,0
1,4,2,3,22,4,-2,-7
2,0,-2,7,-53,0,1,3
0,0,-3,-9,12,-8,-2,2
22,-4,-4,-7,-32,9,2,2
6,-4,-3,-1,12,-7,-4,0
-12,2,22,9,-11,16,3,0
-43,-9,-11,5,18,-8,-5,-8
10,-9,-35,-9,6,16,1,-3
8,-6,-10,-23,-20,-10,3,7
-3,20,20,-23,5,-9,-2,-1
-11,-6,-16,14,6,3,-13,-17
10,-10,20,-21,-19,-6,-6,-5
4,-4,11,48,-15,0,-3,-6
11,4,-30,4,14,-5,1,2
21,-2,-2,-5,7,2,13,0
-49,-4,6,5,0,-12,-7,-10
14,-5,4,-35,7,16,-11,-1
7,4,12,26,-7,-2,6,2
14,-4,4,-5,-17,0,3,1
14,-5,-13,-3,15,6,1,3
3,6,-6,10,-3,-6,0,-1
22,1,-22,-4,17,-18,-4,9
26,4,2,23,-22,-5,0,1
-56,-1,17,-8,34,33,-5,-19
-24,-11,13,3,-2,-4,-9,-12
25,6,-1,-10,-32,-2,-2,0
8,9,5,-14,-36,-12,-2,-4
21,0,1,4,4,3,1,3
27,4,-1,16,-9,-7,-7,2
-76,-2,12,-20,5,1,-2,-4
17,-6,5,4,5,2,0,0
11,4,2,-13,-24,6,0,-4
-2,-1,-16,17,1,-8,-1,-8
3,-5,1,22,-4,-8,-2,-3
17,-2,-24,-40,8,8,-2,4
10,11,51,52,-38,-5,9,29
5,6,39,1,49,6,11,1
-13,-18,-27,18,48,-16,-29,-46
-20,-10,-2,-15,-70,8,-5,-6
-38,8,38,23,16,-4,-1,-9
-68,-6,-93,-4,-46,-10,12,-7
52,-11,10,22,-13,-14,-13,-3
-16,11,34,-15,15,-4,0,4
19,9,5,10,6,-2,5,10
11,-19,-31,-20,4,2,2,6
7,-2,0,5,16,0,0,3
2,3,6,7,7,2,3,0
3,2,6,-3,-4,-2,-4,-3
-5,-14,7,-11,15,-9,-3,5
24,22,8,-6,22,36,9,20
64,49,86,65,37,-13,6,8
-35,-35,-78,-43,-15,-18,-15,-22
9,-36,-43,-45,-80,-17,-19,-7
-3,-9,5,19,21,4,0,-15
-15,-2,22,-3,0,6,5,0
-16,5,11,10,37,3,1,1
17,1,6,-5,-14,-6,-3,-6
12,5,2,10,-8,10,3,7
11,1,0,-17,-1,4,0,7
1,2,5,24,3,0,4,4
-1,-2,-9,-27,5,13,5,2
0,-1,-5,-8,5,-12,-4,0
-3,0,1,28,6,4,-2,-4
-4,1,-10,-17,-12,-4,3,4
-8,-10,-3,7,21,-7,-5,-3
-3,-6,-5,9,-55,-16,5,-2
2,-8,6,16,44,10,-14,1
41,6,-11,-36,-78,-13,14,15
56,39,30,24,-6,5,7,16
-46,21,25,-7,71,39,-7,12
-22,-12,2,-6,-97,-44,-24,-60
-128,-41,-128,-45,-80,24,-12,-62
50,-38,0,-5,44,-24,-14,-35
-5,-1,2,-34,23,14,5,2
94,11,39,7,11,-2,4,27
-55,-6,36,-2,14,8,7,10
7,0,-16,19,10,0,-1,5
11,5,13,-6,1,2,3,9
19,7,10,-11,-24,-3,2,10
3,-1,6,47,27,2,0,4
-14,-1,1,-23,17,11,3,-2
-11,7,0,1,21,-2,-2,-3
-2,-2,2,-2,-47,-11,-8,-8
-10,-1,-15,2,-66,-10,0,4
-11,-3,-8,-10,30,7,-3,-5
-10,-7,-2,-6,-17,1,-2,-7
-9,1,-4,-2,-2,-6,-2,-4
-2,5,0,4,12,2,-1,0
-9,-4,-5,-28,11,-3,-4,-6
-4,-8,0,35,-1,3,-8,-3
-5,1,7,27,3,-8,-6,-3
-2,5,-4,-3,26,-5,19,4
-9,-19,-25,-8,-71,-9,-2,2
-4,-2,36,-28,-6,-5,-11,-12
18,14,-37,12,0,-1,4,10
13,29,-2,23,-17,12,11,8
-60,-33,-29,-29,14,-7,-26,-20
-13,-25,31,-2,12,-11,-11,-21
-24,-4,-5,-15,82,0,5,-5
19,-2,-15,14,-5,-1,-1,1
43,4,6,14,-84,-12,-3,10
-14,2,1,-12,-15,-3,-1,-10
-27,-6,3,7,33,3,-1,-10
-12,-1,5,11,21,-5,1,0
23,3,6,22,-10,0,1,6
25,0,1,-22,0,22,5,13
14,-3,-7,31,41,5,6,6
16,9,3,11,-19,-17,-4,4
6,1,12,-11,-32,-9,-7,-6
-29,-7,-39,-13,24,30,3,-11
-39,1,0,-5,-13,-7,-10,-12
17,-9,-9,-7,-26,-9,-7,4
16,0,-4,-26,24,0,-1,-4
-16,5,3,-17,-24,-4,-3,2
23,6,0,25,-95,-16,-2,8
8,-1,26,-21,46,-2,-6,-8
4,-10,-6,-11,-22,-5,-4,1
15,0,-18,-49,-11,1,2,16
13,10,3,33,21,9,-2,-5
-47,-18,-1,-19,8,-2,7,-23
-36,-5,14,-1,3,-11,-2,4
12,8,-10,28,25,-2,3,5
6,4,19,57,39,5,-7,6
20,-6,35,-54,-116,-16,-20,-11
-18,2,-58,6,21,-7,-4,-12
12,4,23,-6,-2,9,8,5
36,-6,-5,36,14,6,-1,4
-59,-23,-56,-13,-1,9,3,12
19,3,43,4,2,-3,0,-4
9,-7,-51,0,18,-17,5,-6
-33,-3,-24,-20,4,8,7,-8
-24,16,35,27,13,13,-1,3
15,18,81,37,24,-15,-4,-4
1,-22,-128,-26,-66,-15,-17,-11
5,-6,-8,25,20,-8,-6,1
21,1,3,-9,16,-6,2,4
10,-5,-4,-25,-25,13,7,19
41,6,-5,9,25,3,5,21
48,22,26,-12,-23,6,2,3
-11,-16,2,-5,-11,-1,-8,-51
-128,-33,15,13,50,-5,-8,-29
9,7,-12,-9,-33,-3,0,1
36,8,-11,23,-7,2,-1,12
29,1,-14,-96,-9,-7,-6,9
5,2,-1,57,8,-15,6,6
9,3,36,48,65,29,8,5
-11,-3,-42,-9,-21,-5,-2,0
7,3,0,45,27,-4,10,-5
2,-6,-24,4,-59,-6,-10,6
22,0,17,-65,14,-13,0,27
44,9,-20,4,33,16,16,-4
-128,-12,-15,-7,-68,-14,-17,-30
-13,-23,-2,-23,22,-25,-22,-28
7,2,3,-2,-14,2,1,-4
10,-3,1,7,15,-5,0,10
5,-1,-1,5,5,-3,8,4
2,-1,0,-11,-13,-1,6,3
2,8,36,8,18,1,-2,1
-1,-8,-27,1,15,4,-1,2
2,-3,-12,-19,-13,-6,0,-1
-5,-8,1,41,-8,2,-7,-4
44,15,33,-46,16,-1,3,29
90,13,9,-23,-21,-13,10,13
-128,-21,-1,49,13,7,-2,-29
36,-15,-6,-50,-66,-22,-17,-38
-48,-11,0,1,-25,-9,-11,-17
17,11,-17,15,70,29,7,6
5,7,-8,3,33,-4,-3,2
-6,-15,8,7,-87,-3,-6,-5
15,8,16,2,21,2,-2,8
28,1,-9,-1,18,-6,-6,4
-57,-3,6,4,-1,0,8,-5
-21,-4,-7,-18,18,11,-11,-2
5,-1,-7,-10,-17,-16,-4,7
18,5,9,-4,-6,-16,3,2
-18,-17,-20,-1,31,16,-5,-10
29,-3,14,-42,56,21,0,6
13,3,-15,-39,-69,-31,5,4
53,30,15,-28,-17,17,-9,8
-26,44,81,1,-54,11,6,-1
-80,-40,-128,6,31,-26,-9,-19
15,-22,-62,-6,22,-11,-2,-24
34,-24,32,20,-3,5,0,8
31,11,53,4,-7,-5,-10,8
36,1,-53,-2,0,-1,3,7
-43,6,6,-2,-12,6,9,-11
33,-1,14,17,-1,-1,1,-4
9,3,10,5,29,10,4,12
-58,-1,7,10,8,-8,-8,-6
-52,-1,-7,-9,-9,0,-12,-4
-6,-15,-16,-16,-11,-2,1,-12
-17,-6,0,-2,4,-5,5,-6
11,6,-2,-13,9,4,1,1
4,-1,-4,-4,-40,3,-8,1
4,3,0,13,5,-16,2,2
4,-4,2,-22,22,3,7,-3
-1,2,-5,17,24,-11,5,4
7,-1,-7,-22,-41,13,11,14
54,14,10,-2,-60,-13,-22,22
81,7,14,-20,12,-7,-19,-33
-128,-33,-5,-7,-40,-9,-8,-44
22,-11,3,20,64,9,4,1
25,4,-4,-26,26,1,4,13
25,4,5,51,-18,-4,3,12
46,4,0,-50,-51,-3,-9,4
15,5,-5,-15,12,10,9,0
-11,7,-18,31,10,7,1,-9
-38,-21,8,-76,21,2,-13,-11
23,11,-10,-5,9,-21,1,-3
1,12,-6,-5,-52,-11,2,3
-29,-17,-8,37,4,-4,1,-5
-2,-9,0,1,-47,11,-1,8
-79,-7,-1,15,66,-15,-3,-19
-31,-4,6,-6,-49,1,8,-4
23,4,-4,2,58,2,-5,-2
14,-5,-2,2,-15,-8,1,-2
18,12,31,8,-20,0,-3,9
9,6,13,8,-7,17,-4,-8
-4,-16,-84,-19,12,-30,-4,-6
-3,7,2,-14,5,1,6,6
19,5,9,1,10,-9,-2,8
10,-17,0,7,-11,18,-3,-1
-45,-7,-1,-13,9,2,-6,-11
40,3,-8,14,6,-10,-6,4
-71,-2,-15,-42,-10,-19,-2,-10
5,18,10,-9,31,18,-5,2
39,20,86,29,-29,0,5,7
-17,-36,-112,9,-54,9,-4,-11
-42,-18,-34,-19,51,-13,-3,-7
13,0,-53,1,-58,-15,-3,-7
-13,-15,42,-38,69,14,13,1
67,-5,-107,5,3,12,-7,18
-2,10,16,31,-38,-13,0,2
-101,-2,36,-3,-13,8,8,-12
9,-1,-13,2,50,9,3,-11
7,1,-8,10,-12,-1,4,3
18,6,-4,4,16,19,4,3
0,-1,9,-5,-35,-26,-12,-2
2,-3,2,-1,34,5,-4,5
22,5,7,-6,-39,-1,-6,-3
8,-1,2,-5,-7,0,-2,5
6,2,0,-5,-2,1,4,8
37,5,6,21,15,2,-1,-7
-102,-2,22,-7,-1,-1,-8,-16
61,-8,-31,-3,16,-4,-8,-6
9,-13,-30,-19,-6,-1,1,-13
-108,-3,14,27,-42,-34,-3,-19
-25,-17,9,-9,10,0,-8,-12
12,-4,-11,-21,-14,0,-4,4
27,6,-11,-6,10,4,4,9
33,4,9,37,0,0,-3,4
0,2,7,10,18,-2,5,1
9,5,-12,-8,-28,-4,-8,4
1,-21,-21,-20,-40,9,-5,-3
-2,18,60,-11,8,2,2,2
-10,-15,-67,12,50,-3,2,-8
-1,-5,-15,-37,-45,-18,-21,-1
33,-5,-11,7,20,11,7,2
-53,-9,-3,-8,-47,3,1,-11
-13,3,15,-8,-9,-8,-1,-3
-2,12,-2,-5,22,-4,1,-5
-5,-2,-14,-14,-4,1,2,0
-3,-1,-13,-13,-6,-10,-8,-1
18,-2,4,29,1,-1,-4,5
6,-8,-8,-24,12,-9,-4,-8
-4,-4,18,-39,16,0,2,-4
0,9,-1,-25,-13,-9,3,3
8,9,-13,30,-13,-6,-6,5
17,-1,11,9,9,0,-2,-5
-76,-13,-4,-51,-7,0,-8,-18
-10,-5,-4,39,-30,-14,3,8
26,-4,-1,1,36,-14,3,3
-9,-6,0,-4,-80,-4,-9,-1
-23,-3,0,-4,41,21,3,2
-2,21,6,-8,10,-14,-4,-16
-4,5,23,7,-33,14,-2,-10
-68,-27,-5,-45,9,-8,2,-7
4,-4,-12,12,15,-4,2,6
96,34,11,2,5,-3,8,20
-75,-23,-9,-18,2,-21,-9,-10
12,0,34,37,12,26,1,-3
8,-1,-28,-14,26,-9,-8,4
8,-8,-6,34,11,-4,-6,-8
12,6,-2,-5,-2,-4,-1,7
-8,0,-2,-29,-10,-6,-1,7
14,-7,5,10,28,18,1,-2
-35,-2,10,7,-42,-7,6,-5
4,13,17,23,5,5,2,2
3,5,7,0,46,-15,-8,4
-1,0,-5,-27,-49,-4,2,3
-2,-2,1,12,3,-11,-2,-6
9,2,-10,-26,-42,17,-12,-1
-20,-10,-23,40,42,-17,-7,-12
-4,-2,4,-17,-33,26,10,-1
7,5,28,27,39,5,5,7
35,7,7,2,31,9,1,7
-13,-8,34,-15,-59,-13,-5,-4
-76,-27,-87,4,6,-1,-3,-5
62,7,7,8,6,-3,-6,13
18,6,-3,-4,-12,-8,2,7
-55,2,5,-26,33,12,8,-21
-3,-13,-8,-1,0,-8,-8,-30
-5,-10,-10,9,12,-19,-1,-1
-32,-4,38,34,3,-15,-6,1
49,5,-19,-50,57,22,5,10
-13,-5,-4,7,-56,-5,-2,0
-8,1,7,15,22,-14,-2,-6
2,3,5,-4,-40,17,6,5
5,-13,-2,17,25,5,1,0
7,19,16,-13,-19,-13,-2,-1
5,24,14,30,-13,5,-15,-3
-7,-15,-57,-1,6,-17,-8,-2
-4,-3,-16,-13,11,17,-2,-3
2,-14,26,-6,-74,-11,1,5
3,-11,-37,6,17,6,4,4
-40,5,9,-6,-6,4,2,-16
-13,2,14,1,0,5,-10,-24
19,-6,0,-17,25,-26,7,-3
-7,-6,-10,5,1,8,-11,3
2,-1,0,11,-13,-5,-4,4
1,-3,2,16,54,-2,5,2
17,4,-1,11,-17,14,9,15
48,11,1,-20,8,31,9,11
43,16,30,10,5,16,4,11
-128,-19,-12,7,29,-26,-6,-30
