Channel_1,Channel_2,Channel_3,Channel_4,Channel_5,Channel_6,Channel_7,Channel_8
3,0,-1,45,-46,10,3,3
-12,-11,-7,25,-20,-43,-22,-16
-1,4,23,50,-22,19,5,3
19,16,16,-18,106,-11,15,27
-5,7,34,127,5,54,1,-11
-21,-28,-34,-128,-128,-57,-43,-29
8,11,8,127,-7,-52,18,15
-24,-22,-39,-99,81,15,-27,-21
-25,-13,10,10,-49,-1,-21,-24
8,12,33,92,63,-16,1,-2
11,2,-6,-96,-52,-9,4,15
-8,-4,-2,20,60,7,-1,3
-10,7,5,43,21,11,10,-19
10,3,13,8,-9,5,10,31
5,4,3,41,-38,10,11,4
4,10,10,-79,100,-44,-2,2
15,17,44,127,84,127,58,21
-20,-27,-34,-128,-53,-84,-25,-12
-13,-22,-27,-120,-106,-43,-6,3
16,8,-22,-35,-62,-14,-9,-7
-11,-2,-5,127,82,4,-26,-32
-7,0,14,-37,-62,-2,-3,-3
-1,1,-5,-113,34,7,3,3
-4,-4,17,127,110,41,-4,-4
-23,-14,-20,40,39,-97,-33,-37
-25,-27,-27,-56,-128,-14,-49,-38
-5,-1,-12,-9,65,89,16,0
13,14,19,117,82,80,48,14
4,-4,-19,-128,-128,-51,-8,3
-20,-30,-48,-117,7,-61,-37,-23
-5,-14,-37,-128,-128,-16,-14,-11
-4,-2,-5,-25,33,-55,-5,13
13,20,12,-42,18,17,14,14
4,12,21,127,15,-7,5,-5
-17,-27,-27,-128,-128,-69,-21,-22
-7,-6,1,1,81,-12,-15,-12
1,11,29,127,127,54,2,-5
-8,-3,-1,-128,-128,8,9,0
10,6,3,13,11,19,14,-1
-4,5,24,49,-10,5,0,-8
-19,-16,-37,-35,-82,-75,-22,-23
5,5,10,-9,105,-4,-3,5
-19,-17,-27,-40,-61,39,-6,-4
-2,-13,-32,-128,-128,-26,-13,-6
-4,-11,-7,36,24,-20,-15,-3
1,6,10,76,42,-85,-9,3
-8,-6,-1,19,-33,26,-18,-12
0,3,1,-32,-16,41,6,-3
-1,-4,-10,-1,-58,-8,-1,-3
-24,-15,0,53,22,-20,-4,-11
25,22,27,80,76,-27,8,18
-7,-11,-45,-128,-128,-41,-28,-17
-1,-17,-40,-84,-25,-44,-24,-17
5,13,19,-56,79,-20,9,-3
-6,-11,-9,127,62,20,-19,-2
-2,-7,-14,32,-4,5,-9,-15
1,5,6,17,17,-3,8,3
4,12,17,26,-15,-13,17,12
-6,-17,-18,-96,-25,-17,-3,4
-4,7,12,-7,52,-1,-3,6
9,16,21,44,-48,-128,-9,0
11,16,21,43,52,127,38,12
12,7,-1,-68,-105,-107,-15,0
-17,-19,-40,-3,-3,-64,-26,-26
-8,-17,6,52,6,-112,-25,-6
0,-10,-10,-78,41,42,8,9
14,16,46,127,127,-1,10,30
-2,4,4,0,-128,-2,-4,-13
-12,-16,-40,-128,-121,-7,-20,-23
-5,-3,7,2,-1,0,2,0
15,17,27,114,47,12,5,18
-2,8,29,127,127,74,19,3
-18,-21,-37,-128,-128,-30,-29,-20
-18,-21,-71,-111,-68,-19,-27,-30
4,-1,-2,35,28,11,8,10
-8,-12,-4,18,-5,11,-1,3
0,-3,12,62,82,21,6,-1
10,15,11,-27,-16,0,1,5
25,20,3,-42,10,1,30,35
16,13,15,-12,-27,-39,3,11
-16,-9,9,127,-7,36,-36,-36
-26,-31,-61,-125,-97,43,9,-27
11,21,22,82,105,21,31,14
-3,-19,-17,-128,-128,-12,6,2
-6,-12,-10,-46,97,-24,-31,-8
7,1,3,-41,-54,51,16,15
-19,1,31,-12,-25,-38,-7,-10
1,3,-5,13,0,-3,1,0
1,3,-2,-12,-24,-9,0,-1
0,6,41,32,-13,-16,2,3
3,3,1,32,42,-21,4,6
-5,-4,5,20,-52,34,4,-1
5,12,21,-30,81,57,17,10
5,1,-5,97,-11,-25,-8,-1
-15,-22,-50,-128,-128,-71,-44,-27
-3,-15,-61,-80,-94,21,-12,-7
4,3,20,-48,87,-17,11,4
-5,11,22,127,118,28,11,7
9,18,19,18,-105,0,6,6
7,9,23,-75,105,-18,15,12
-9,-20,-19,-76,-36,59,-1,0
-40,-35,-48,-65,-69,-17,-58,-60
16,17,12,65,-3,8,11,8
1,-1,4,43,82,-42,9,13
11,9,19,106,-8,64,23,17
2,-3,-16,-112,-33,-69,-2,18
-17,1,11,95,-15,-6,-3,-5
-9,-1,0,-73,-7,-44,-13,-15
8,-16,-17,40,39,-4,-17,-18
10,-7,-8,-69,-83,-1,1,9
-30,-6,-11,-38,-66,27,7,-13
-5,-1,1,51,39,-16,-2,-4
28,21,-1,86,112,22,17,29
10,-1,5,110,63,-7,-4,9
-29,-26,-40,-128,-128,-36,-18,-23
19,-2,-2,-27,-40,8,8,8
22,29,31,7,68,0,28,40
-55,-29,-22,115,-36,-41,-39,-50
-13,-14,2,107,119,6,-10,-20
-1,-26,-61,-128,-85,-37,-19,-12
-1,-14,1,33,-39,-19,-18,-7
17,16,19,98,59,25,22,25
24,25,17,93,56,33,34,25
-8,-3,-1,30,27,-1,-12,-16
-28,-40,-55,-128,-119,-33,-40,-24
-26,-33,-35,-128,-120,-39,-25,-16
23,20,20,65,112,22,21,21
25,32,33,66,62,17,19,24
-1,8,10,-23,-57,-50,2,-12
-4,-10,-30,-45,-86,57,0,-9
-12,-12,-3,-6,66,-29,-12,-11
-8,-12,5,35,28,47,-3,-1
9,7,17,-60,14,-60,10,6
1,-13,-13,-39,-56,127,16,5
-32,-15,-8,-81,-16,-84,-20,-28
12,28,55,127,16,66,45,33
4,-18,-62,-128,-128,-41,-18,0
-29,-20,-20,114,-34,-20,-33,-34
-20,-19,-14,72,-59,-22,-33,-34
6,8,2,19,-4,18,9,11
-8,-2,-3,10,-50,-29,10,-1
18,16,30,127,127,28,25,39
16,14,16,-23,-30,17,14,16
-10,-10,-14,-21,-46,3,-11,-23
-4,-5,-21,30,-14,4,-5,18
3,-8,-41,-102,-73,-45,-11,5
-7,-12,-59,-58,12,-43,-10,-21
5,6,-22,3,36,114,2,-31
9,2,13,13,-96,-24,7,9
-1,0,4,-54,-1,-22,-1,4
-17,-11,-13,-31,31,-8,-4,0
0,-1,13,75,39,-5,-2,4
3,3,6,-26,-2,0,5,4
-6,-10,-7,-11,-6,-29,-13,-4
-2,-6,-6,-4,60,-65,-8,0
-2,0,6,32,88,78,5,15
31,30,48,121,34,127,80,53
-1,12,28,127,-37,82,2,-34
-59,-58,-106,-128,-128,-128,-83,-72
-9,-17,-16,127,57,-46,-13,-16
5,-4,14,111,127,21,5,10
2,-9,-10,-128,-53,-2,3,16
8,1,-4,62,8,3,3,5
5,17,28,87,22,16,10,6
1,5,19,99,30,36,-2,-4
11,15,27,127,102,-37,9,15
22,24,13,-128,-98,30,21,26
-13,-17,-27,-64,-22,-2,0,-13
-21,-12,9,127,34,-23,-13,-16
10,0,1,-8,2,1,5,8
3,-3,0,-9,-20,1,-4,-3
24,10,9,-13,-18,9,14,16
-37,-9,36,-43,-45,-2,-26,-38
32,13,18,-23,-22,-48,10,28
27,17,28,27,127,60,16,21
-79,-33,-33,-104,-128,-66,-32,-67
-27,-25,-35,-75,127,0,-33,-43
5,1,2,42,56,13,-4,6
3,-4,5,29,32,6,-1,1
39,21,25,28,-7,17,29,37
25,23,20,127,88,50,23,26
-17,-22,-42,-128,-128,-53,-16,-12
-13,-12,-15,6,-80,-16,-23,-15
6,8,17,12,12,-25,-1,-4
3,-7,-17,-61,-41,-62,-9,5
-1,-16,-40,-18,-19,23,8,4
1,-1,2,-35,0,46,13,-1
-2,2,4,4,31,6,-5,-5
-3,4,0,23,-3,-39,-2,-2
-2,5,6,-13,42,0,-12,-1
3,11,45,125,-12,25,10,2
-11,-17,-41,-128,-111,-4,0,-9
-5,-7,-2,30,-106,-22,-8,0
-9,-5,3,53,127,-37,1,-4
7,7,20,19,76,-79,-7,5
-7,-5,15,33,35,81,4,-2
-6,0,0,-6,-55,-57,-12,-2
8,-1,-14,24,127,-11,-17,0
34,47,43,127,-45,127,45,23
-56,-65,-128,-128,-128,-128,-59,-67
-23,-30,-22,127,127,5,-27,-23
12,2,12,17,-5,-3,6,9
11,14,27,10,-62,-3,11,24
11,18,23,127,6,19,22,11
12,23,39,109,113,16,15,14
-22,-33,-71,-128,-128,-48,-28,-19
-15,-22,-32,-23,52,-28,-35,-26
-10,-4,-8,42,49,-45,-19,-14
-1,2,11,29,-18,121,28,14
14,10,19,31,32,6,18,22
27,27,31,12,-107,35,30,26
4,-3,7,127,127,11,-21,-16
-16,-14,6,-68,37,-14,-15,-24
-37,-40,-58,-128,-128,-79,-36,-30
0,-12,-38,-34,1,-12,-9,1
18,17,3,55,69,22,29,25
-7,7,11,-36,-128,-73,-18,-1
-1,-13,-29,-47,14,71,29,1
10,12,17,-11,-42,-5,7,5
1,-2,4,37,12,13,-5,-4
-5,2,27,49,44,11,10,6
2,-9,-70,-81,-54,-22,-2,0
-11,-6,-16,-46,5,-24,-27,-21
3,6,0,21,-7,-24,2,3
6,5,7,-11,-13,10,3,13
10,15,30,127,7,-37,7,2
8,9,24,-31,-2,86,12,13
-13,-19,-37,-4,-60,-39,-23,-6
-2,-1,-12,5,13,-1,1,-2
-8,0,14,50,32,21,4,-9
6,8,18,60,98,3,0,-4
3,5,-10,-32,-88,-19,-4,3
-4,1,-3,-21,15,56,2,-1
-8,-4,8,14,-41,8,-2,-19
-7,-9,1,11,12,-51,-26,-4
2,-2,1,-2,-22,-11,9,13
5,10,2,57,-50,3,12,22
-15,-21,-25,-109,40,9,-13,-17
-14,-14,-26,16,-77,-57,-22,-32
-7,-6,8,91,127,72,-11,-8
0,-11,-24,-128,-64,-51,2,11
9,13,26,46,4,19,19,12
-1,0,14,34,-59,1,8,7
11,15,11,104,77,-70,-1,25
10,14,8,127,85,127,24,2
-28,-44,-81,-105,-17,-45,-39,-35
-13,-6,4,-118,-128,-41,-17,-20
6,-5,10,25,72,7,12,29
22,22,22,3,18,1,11,3
-17,0,5,48,-5,-12,-14,-30
-2,0,-22,14,-16,-3,-5,-5
-1,-5,11,14,-24,-1,12,11
-4,-4,11,34,127,24,3,8
13,-4,-15,-128,-120,-19,0,11
5,9,2,-1,-7,5,-5,-6
-13,-13,-18,-16,-11,-14,-21,-19
-9,-8,-12,14,2,11,14,7
10,-1,-6,2,-1,-24,-7,12
10,30,33,16,-19,-39,13,7
-15,-12,-7,20,110,-19,-23,-38
0,-11,-8,-24,-84,13,5,16
-1,-5,7,51,-9,25,11,8
20,14,17,-32,-37,10,1,11
-12,-14,-31,-25,-57,-20,-14,-7
3,4,5,61,74,-20,-15,-5
-5,-3,9,-119,-73,-55,6,-7
1,0,-22,98,56,-19,13,7
-6,-11,-2,14,127,68,2,3
-2,-8,-48,-128,-64,-119,-24,-6
-3,-8,-45,-86,-26,110,-6,-5
-3,-3,-8,88,38,26,-5,-5
8,14,28,-16,28,26,31,10
-2,0,12,110,20,-21,0,-5
-11,-22,-55,-128,-128,-4,-22,-9
6,2,2,-8,-9,-52,4,10
5,7,14,76,54,44,10,0
-12,-13,3,33,-40,-8,-14,-17
-2,8,16,96,5,6,6,4
-9,0,-4,-128,-82,-16,-2,-14
-12,-14,-5,69,43,-6,-14,-16
9,0,-25,75,109,-102,-16,14
15,20,22,18,70,127,47,3
-29,-27,-33,22,-19,-49,-39,-41
-12,-24,-31,-61,-29,-69,-25,-18
3,0,15,-22,-15,-32,8,12
0,-4,4,-30,-5,5,12,12
22,15,14,29,-6,11,13,20
19,24,20,15,14,26,19,24
-28,-16,-3,-31,-40,-11,-48,-50
-11,2,10,127,127,3,-1,-11
1,-9,-11,-65,-79,-7,1,9
-13,-17,8,-26,-45,-62,-19,-4
5,10,17,-63,46,60,20,5
1,-14,-14,-34,-19,36,4,9
8,5,4,24,-49,-44,11,15
-17,-11,-16,-33,-66,-18,-18,-22
1,6,18,54,42,-44,-5,3
3,12,17,49,-5,53,-11,-6
-18,-38,-34,-29,111,-38,-27,-21
3,1,11,50,68,-31,5,11
4,-3,6,-28,-75,-20,3,17
14,14,22,-8,34,1,5,4
-16,-16,-22,-15,-21,-30,-27,-27
-19,-3,-6,21,-14,-5,-8,-29
13,8,1,-41,-35,-35,5,5
-7,-5,14,25,-21,7,-3,-9
-13,-17,-37,-49,-24,-35,-8,0
15,12,29,35,61,20,13,23
2,9,22,127,127,-6,-1,-8
-1,-14,-14,-41,-110,82,-1,-3
6,-7,-5,-66,-79,-36,-8,14
-12,-14,-36,-113,-50,-18,0,-14
1,19,21,62,31,8,22,27
-16,-23,-40,-85,-5,-57,-42,-36
-18,-20,-10,65,72,-1,-13,-36
-6,-1,5,-19,44,-9,-5,-22
8,14,30,103,-5,12,10,12
7,8,8,20,-15,16,19,17
8,2,-14,13,94,-73,-13,10
-3,-1,12,127,-14,87,-1,-2
-18,-20,-40,-128,-57,91,11,-2
7,-3,53,15,7,22,3,4
12,17,20,52,38,20,7,14
31,34,57,72,-21,-1,23,23
-15,-21,-24,-55,30,-39,-27,-17
-22,10,38,127,60,9,-14,-14
-16,-22,-59,-128,-128,-42,-23,-21
-12,-13,-30,-54,-66,-50,-24,-22
0,3,9,61,40,58,13,8
21,11,19,23,-1,38,18,21
31,26,55,127,127,-16,25,26
-9,2,3,-41,-128,-6,9,2
-46,-59,-73,-128,31,-16,-45,-53
1,-5,5,33,34,10,-10,-6
11,4,-1,12,24,2,0,1
9,13,8,-10,6,18,3,3
-3,2,9,93,25,-8,-2,-5
1,5,14,-24,31,7,10,5
-6,-7,-7,-57,-49,1,-4,6
19,-2,4,-28,-47,-11,-1,14
-8,11,19,27,26,21,11,3
-11,-6,3,127,95,7,-18,-17
20,8,16,-91,-16,1,1,-3
-44,-24,0,-91,-21,-46,-26,-33
-37,-25,-37,-55,18,1,-16,-22
7,9,13,118,66,3,3,9
31,10,-6,-14,9,5,18,25
15,18,49,127,16,33,20,8
-22,-27,-42,-128,-128,-30,-25,-15
-29,-24,52,-128,-90,-57,-31,-20
15,5,12,127,58,26,18,16
12,15,31,52,69,46,14,6
-14,-9,-19,-90,-118,-17,-17,-16
-4,-16,-38,-128,-48,-50,-22,-3
-2,-10,-8,-99,-21,-18,-10,-6
2,8,25,66,65,0,9,6
2,23,67,127,79,14,16,-2
-7,-17,-34,-66,-17,-4,-8,-5
6,-12,-36,-116,-91,-21,-16,12
-4,-13,-29,-29,12,1,-3,-4
12,17,27,24,-31,14,20,7
-5,3,1,27,37,-2,-24,-16
-24,-3,-19,46,65,-12,-17,-31
10,11,6,-45,-128,-71,6,6
-31,-20,-2,96,127,50,-10,-18
2,-7,5,-29,-29,13,8,0
9,5,0,-10,6,-11,10,15
13,11,12,-16,-40,-11,12,22
0,6,2,-2,39,6,0,-6
-7,-2,-9,-44,-28,1,-10,-13
-17,-14,-11,-9,-58,-70,-35,-28
-5,-1,-3,30,74,17,7,2
10,4,3,36,-42,-8,4,11
-14,-27,-40,-87,38,14,-8,-8
-6,-3,-5,-43,11,-32,4,12
15,9,28,-22,1,14,6,11
-5,11,24,34,18,-11,11,-10
-23,-9,-20,43,-13,-47,-27,-31
-10,-9,2,73,23,-4,-21,-19
9,7,3,-111,-82,75,34,17
5,-7,-18,-22,-74,-40,-10,14
6,-10,-5,-73,13,-33,-14,0
4,1,3,-34,-37,-11,-4,4
-4,21,9,66,62,16,20,14
-13,-13,-21,-56,-23,-21,-25,-8
-5,-1,12,83,-51,-6,-5,-17
-6,-8,-3,25,3,-13,-10,-20
-10,-10,-22,-11,-17,6,-2,-15
-13,-14,-24,42,58,12,0,3
3,2,14,-54,-29,1,1,8
15,10,9,7,-24,-21,6,17
5,21,31,57,15,12,24,15
-17,4,17,121,69,0,-6,-24
-29,-45,-67,-128,-128,-41,-40,-35
-9,-17,-22,-45,55,-6,-12,-2
0,4,14,53,63,17,5,7
-3,-2,11,-11,-32,14,25,20
16,16,11,53,5,-25,-1,12
-15,-8,-14,-7,-63,50,-9,-35
2,1,1,-3,-27,-69,-12,-22
-20,-4,-7,-2,127,-14,8,-5
-24,-5,2,9,-121,101,5,-2
2,0,18,-17,-128,-57,-6,2
-4,-16,-22,-22,127,11,-10,-6
9,8,16,50,70,0,-5,2
0,-3,-6,-43,-88,-25,-8,-3
4,1,3,23,2,6,-1,7
16,17,19,84,108,-20,20,16
3,11,43,78,-88,25,3,0
-30,-35,-53,-128,-86,-73,-38,-40
-14,-8,-19,2,44,17,-11,-14
-4,2,29,96,127,-11,-10,-12
20,30,44,127,14,26,36,23
-1,-7,-4,2,-101,-10,-5,-1
-6,-9,-9,-123,22,26,-1,-2
3,-6,-5,-33,16,3,7,8
12,8,-4,28,72,16,18,21
-13,-16,-30,-102,-93,-22,-18,-16
-23,-13,-10,18,25,-5,-7,-18
-15,5,23,16,-15,5,-11,-31
4,10,25,127,127,-10,-6,-14
10,16,17,-106,-72,46,20,12
-24,-51,-89,-128,-128,-100,-52,-23
3,-1,-1,92,107,-39,0,12
7,11,26,119,52,36,14,16
-14,-23,-4,107,32,-9,-7,-18
21,19,16,37,39,-5,16,21
5,12,11,-52,19,11,3,5
-18,-18,-12,-48,-61,-13,-14,-21
-8,-6,1,-8,-11,0,-7,-11
-4,-8,0,-6,39,15,-3,-1
0,3,3,-34,-34,-3,13,8
10,-2,-28,79,4,15,20,16
-4,-6,-11,-82,-64,-8,-11,-2
-7,-12,-13,59,100,16,-5,-8
4,1,-32,-94,-128,0,0,-2
-4,-3,-10,-47,24,-7,-4,-3
-1,-3,-22,47,47,-14,-2,-1
3,2,14,47,127,0,6,10
9,17,37,94,66,-14,19,20
8,2,-6,-28,-128,82,20,6
-29,-37,-61,-128,-115,-40,-37,-28
-16,-15,-9,2,43,-31,-35,-33
3,1,6,93,-69,-11,0,6
11,12,33,127,127,17,10,14
4,11,14,-128,-121,-6,11,13
-22,-29,-57,-65,53,-16,-25,-21
1,2,12,81,10,24,11,5
5,10,28,90,-21,-12,12,5
-6,3,4,-34,-58,-24,4,10
13,0,5,27,4,-21,-7,6
4,4,-5,-84,-22,44,-5,-18
-25,-17,-26,13,-24,-13,-26,-31
-24,12,36,64,48,29,13,3
12,3,-25,-128,-29,-1,3,16
0,-11,-17,-3,-128,-73,-13,2
-3,-7,-8,80,107,0,2,-2
0,-6,3,70,39,35,6,-4
10,10,25,25,40,13,-1,7
14,13,20,6,5,19,26,26
-2,-8,-12,-25,-42,9,-17,-18
-17,-11,-16,-13,12,-2,-18,-34
-1,7,4,69,0,-23,0,0
-10,4,17,-55,-23,-62,1,-1
-4,-11,-5,-10,-29,0,-11,-1
-2,-16,-23,-48,31,59,10,-2
3,-5,-11,-93,-15,-69,-19,-5
1,2,11,22,5,106,18,5
18,16,20,14,33,13,21,11
10,10,9,68,-65,1,9,9
-10,-14,-38,-128,61,-24,-19,-17
-23,-20,-6,97,75,3,-25,-22
-6,0,0,12,0,-48,-12,-8
4,4,10,19,63,72,12,9
4,5,6,-26,-65,-4,12,7
-4,-15,-22,-128,-29,19,5,9
24,12,25,97,-40,0,13,11
-17,-6,-8,-2,22,-64,-21,-18
-66,-27,-27,-74,-99,1,-27,-43
12,3,-4,79,64,16,2,12
13,5,31,-38,9,-4,7,17
5,9,18,126,41,-9,7,-5
5,17,26,67,88,44,4,-6
-12,-23,-54,-128,-128,-33,-18,-14
-12,-8,2,127,13,-24,-9,-14
-2,-1,-4,-60,50,5,5,4
6,-6,-14,-29,-94,-19,-5,2
-1,2,13,60,38,21,-3,-1
-3,2,3,29,2,12,-6,4
8,4,6,-31,-50,-27,11,7
12,14,15,-12,47,-31,0,12
-4,3,5,-60,-80,127,12,0
1,-2,-4,34,89,-48,4,0
-7,-15,-25,-128,-128,-57,-4,0
5,9,15,69,70,-24,-1,9
-3,-3,12,22,33,46,0,-5
-7,-12,-18,-45,-10,-39,-14,-11
7,14,26,68,-31,-11,1,4
-23,-28,-61,-128,-128,-13,-30,-17
-4,-4,20,127,-43,-29,-6,-10
1,-7,-29,-60,127,10,6,7
8,3,5,20,-19,-2,2,9
2,9,20,25,29,4,-2,1
-16,3,46,-22,-38,-31,-4,-14
-6,-7,-4,32,40,62,1,-11
7,-1,-21,-20,1,5,18,10
2,0,4,57,-29,-8,-4,4
7,5,14,-11,19,7,12,11
-1,-7,-8,-113,-52,-2,-8,0
-4,-7,11,57,73,-29,-13,-11
-33,-20,-34,-115,-123,-12,-35,-39
-5,-5,-5,10,30,7,3,-1
-7,5,8,20,16,-7,1,4
15,16,25,127,94,38,18,11
14,19,20,-43,-124,-7,18,15
-15,-31,-56,-119,57,-10,-18,-13
8,-5,-15,9,32,-37,-8,0
0,4,18,97,72,81,5,2
-35,-11,7,20,-73,-32,-11,-13
3,12,10,25,41,-13,5,4
2,3,13,51,-13,-20,-10,-9
-5,-5,-37,-128,-16,27,0,-5
-1,2,11,-10,-128,28,31,5
0,-12,-27,8,127,-42,-21,0
13,9,32,127,127,71,19,19
8,5,17,-128,-128,-8,7,9
-13,2,-2,-48,23,-35,-1,-5
-7,-12,-19,-56,-65,-3,-15,-21
-12,-11,-14,-5,-12,-17,-20,-20
0,8,30,28,35,2,1,-4
4,3,6,111,46,18,9,7
6,0,-11,-82,-69,-23,6,15
10,15,19,36,27,28,10,-3
-27,-12,9,12,12,13,-15,-18
2,-11,-8,1,-3,-21,-16,-5
6,1,6,33,64,26,16,6
-5,3,0,-46,-128,-38,2,-1
-5,1,17,41,102,27,17,4
-5,-7,9,14,2,-41,-15,-2
-7,-6,-17,-54,-50,17,-16,-11
-3,-4,0,-9,86,-57,-18,-5
8,4,-13,109,75,75,31,11
10,5,15,47,-15,0,5,3
-6,-15,-33,-32,-26,-12,-12,-4
-6,-3,-2,-41,-23,-21,-9,-9
-3,3,26,-6,-37,-9,-6,-9
10,24,32,110,34,20,23,9
-5,11,42,127,14,-7,3,2
-19,-47,-95,-128,-99,5,-29,-12
-3,-17,-16,-6,23,27,-17,-15
-2,-1,-6,-53,-34,-49,-4,7
15,23,23,79,50,21,26,17
3,11,16,79,26,-13,1,0
-7,-4,-3,62,-24,51,3,-8
2,-2,-2,-53,3,1,8,2
7,4,4,-1,17,-10,6,16
1,5,-2,-3,-7,-2,3,-4
-12,-9,-19,16,-23,-33,-14,-13
-4,-2,23,119,26,27,1,-11
-6,-17,-15,-97,6,-4,-26,-20
-5,-8,-17,-74,-65,-15,-10,-15
6,4,2,-45,25,-2,1,-1
11,7,10,36,14,-1,14,14
-2,-3,0,24,31,8,2,2
3,5,12,-26,-38,-3,4,7
1,-3,-4,49,40,-7,1,3
-13,-3,-3,103,60,12,-10,-4
21,19,14,-45,-128,23,33,18
2,-15,-27,-128,-1,-61,-26,-11
-14,-3,3,70,34,1,-5,-4
-11,-3,-1,4,-2,8,-2,-6
5,4,7,-53,44,-21,-9,-8
1,8,17,69,3,57,25,7
-3,0,-25,91,59,15,2,2
-10,-12,-24,-128,-55,-34,-17,-11
-12,-15,-38,-55,-128,-55,-18,-14
-7,-14,-14,-27,-54,-5,-9,-4
5,7,25,127,127,54,4,7
14,17,31,125,127,-5,13,19
0,3,-6,-115,-71,56,6,-1
-5,-8,-20,62,12,2,2,0
-3,8,44,70,16,13,-4,-5
-2,-18,-13,-72,-49,-34,-13,-4
-6,-2,-6,-32,-62,-20,-12,-5
-10,-6,3,24,-11,-1,-11,-10
2,5,10,30,28,5,1,-3
5,7,14,19,-25,8,11,9
-8,-7,-6,-52,-21,-20,-7,-4
-3,-3,2,12,76,27,-2,-8
-1,7,8,102,33,-41,-6,-2
-13,-25,-54,-128,-128,99,10,-6
11,-2,-19,74,-8,-32,-2,18
10,10,-2,67,34,3,15,6
0,4,21,20,31,7,-5,0
-13,0,-2,38,-44,-23,-15,-23
-6,-2,-1,33,44,-21,-18,-11
4,-1,1,2,37,33,23,5
3,4,4,-2,-31,2,5,5
4,2,5,-73,-109,-44,-5,4
-4,-7,-7,2,107,5,-5,-1
-3,-5,7,17,83,-11,3,3
1,7,26,82,-44,17,7,7
-3,-11,-22,-52,-11,-4,-16,-14
9,3,2,-31,13,-48,-2,11
-3,15,33,111,35,15,-1,-11
-19,-16,-50,-128,-128,-23,-18,-9
-14,-27,-6,127,127,-15,-15,-16
-1,5,41,36,105,-12,-2,0
10,12,28,127,-11,-4,16,15
-3,-3,-18,-128,-128,-74,-18,-6
-12,-12,-23,46,52,38,2,-8
-9,-2,5,50,19,-12,-9,-6
25,15,12,21,-21,2,16,29
11,5,-7,6,48,18,11,15
-18,2,13,-9,-16,-17,-9,-21
-7,-2,4,16,-47,-1,-1,-19
1,-2,-5,-59,-4,-2,-5,-12
13,9,20,88,57,-25,-12,0
-2,4,-4,14,-111,-5,20,16
-14,7,17,31,-71,12,15,11
-15,-23,-44,-128,82,-10,-25,-19
-7,-5,-2,26,-71,10,-7,-15
1,-10,6,12,50,-9,-7,1
20,10,13,33,3,2,10,20
0,2,-5,-99,-20,2,1,4
-4,3,15,33,67,9,1,-5
8,-1,19,127,11,0,1,4
-6,1,-15,-128,-108,-9,4,-7
-7,-3,-22,-43,87,-69,-33,-14
-10,4,12,-17,-8,35,10,1
-11,-12,-5,-25,-75,1,-7,-13
-7,1,3,127,127,35,11,-6
16,14,10,-56,-19,3,4,14
41,6,6,-100,-97,-15,1,19
20,-3,-18,-78,-128,-39,-5,9
-62,-21,-12,127,127,21,-12,-21
-34,-1,13,106,15,1,-1,-4
2,5,13,-63,-75,-41,4,-8
25,8,7,46,-1,38,0,-1
9,6,-27,59,43,23,13,12
4,13,5,38,-38,-9,7,1
21,-4,-3,-30,-77,-70,-11,22
-44,-19,-12,-4,75,101,11,-32
-29,-5,-9,50,-58,-5,-3,-23
25,-8,-12,-90,-64,-22,0,1
11,-4,-6,-50,7,-10,-6,14
7,6,-5,-127,-7,9,8,11
-36,1,9,36,9,8,-6,0
6,2,-3,21,10,-20,-13,-2
1,1,5,49,-18,18,-4,-8
-4,-12,-14,-16,9,-16,-16,-9
-6,-10,-3,15,102,25,5,6
13,8,19,78,71,-14,8,15
12,14,22,-11,24,6,19,18
0,0,-14,0,-128,8,-2,-6
0,5,-5,37,29,55,14,-10
14,16,7,127,11,5,8,15
-10,-8,-7,-51,6,-8,-7,-4
-26,-40,-46,-95,-11,-40,-30,-24
0,-1,-3,73,127,-38,-9,-2
1,4,10,101,3,36,9,3
14,25,87,127,127,45,13,5
-1,-16,-80,-128,-128,-41,-6,0
-22,-20,-32,6,-17,-14,-16,-14
-7,2,12,93,24,-2,4,-7
-1,9,17,52,-33,10,11,10
-4,0,11,52,127,15,1,-2
10,-2,11,42,85,22,12,17
13,5,8,33,-8,-3,-7,2
-22,-28,-50,-128,-107,-26,-35,-36
-4,-3,-9,-119,-54,-15,-6,-8
-10,-1,-11,7,-11,-22,4,-2
23,16,30,-70,-5,-12,0,5
-3,4,15,-7,-52,17,15,12
-4,1,-6,127,127,22,11,-1
8,6,20,-10,-64,27,4,4
-5,-18,-39,-128,-42,0,-15,-8
0,-7,-8,-14,-23,-39,-18,-5
0,1,-4,11,1,21,-2,7
-4,2,28,54,-3,-28,-1,-2
4,11,36,119,88,-32,0,4
1,-11,-23,-57,-74,42,3,5
2,-2,1,-12,-11,-52,-12,5
-1,2,-2,19,-25,6,5,-13
6,12,17,-54,82,24,12,-1
16,1,5,-9,-89,-4,-9,-8
-24,-6,-15,62,127,-22,-7,-7
-10,-9,-22,-53,-71,-5,-11,-6
-7,-20,-49,-128,-15,-15,-9,-12
-1,3,10,127,12,16,15,14
14,23,53,127,13,-8,7,9
11,3,-30,-64,-49,8,12,8
-20,-52,-101,-128,-92,-47,-46,-30
-3,-7,-4,69,-13,17,-8,-5
12,10,10,99,19,28,19,13
-1,5,35,127,42,-29,-3,0
-1,-5,-16,7,-8,6,7,5
1,4,-2,-16,4,12,-5,-6
3,4,7,-25,93,10,6,9
-8,-2,1,-47,-96,-16,-6,-12
-2,5,6,-45,-12,19,11,-4
12,2,8,-30,72,12,3,22
-20,-23,-28,-20,50,-84,-44,-27
-14,4,20,-25,-41,127,8,-6
20,7,4,-1,28,-32,2,7
-3,1,-4,-15,-71,-25,19,-8
-27,-7,-10,-4,73,-8,-5,-23
-3,-1,-1,0,-6,-25,-13,0
-8,-5,1,-10,15,-30,-29,-12
19,12,-7,-2,-101,-36,18,10
-6,0,1,-2,56,52,16,6
0,1,14,127,29,5,-1,-1
0,-16,-5,-128,-117,-61,-13,4
-1,-4,-6,3,-2,-30,-11,4
-3,2,-3,50,-46,-21,-10,-8
8,5,-12,-43,-59,3,10,1
2,-2,12,-7,61,24,3,-12
-29,-8,-25,-11,-33,-21,5,-3
5,17,53,127,122,24,15,10
1,-12,-10,-122,-75,-43,-25,-13
10,-2,-6,7,67,3,7,17
13,10,15,100,52,8,1,-1
-4,-3,-2,-68,-31,-5,-12,-12
-4,-3,-4,-2,2,1,-9,-8
7,0,-5,-7,-5,-9,2,14
14,4,17,99,-8,-12,9,9
1,2,4,-29,2,26,9,-4
-9,-2,-8,-9,82,18,-1,-2
5,-4,-1,11,-55,28,-2,-4
-25,-12,-11,-13,-20,-36,-10,-25
-12,-3,8,24,-11,-8,1,-4
7,3,14,78,127,18,10,6
9,4,7,36,-128,10,-1,8
-5,-13,-18,-128,23,-19,-18,-9
5,-1,-27,69,108,18,2,3
2,-7,-16,-14,-99,-82,-13,6
14,20,5,-3,-45,112,31,2
-8,-16,-12,-2,-77,-76,-15,-19
-6,-2,19,54,80,16,-5,-2
4,9,25,109,62,17,8,5
1,-10,-35,-128,-5,-11,-2,3
13,18,17,-118,-75,-14,10,15
-10,-28,-55,-128,-128,-48,-31,-27
-23,-29,-11,27,97,-13,-29,-24
-23,-4,5,63,64,21,7,4
14,16,14,-22,-27,17,6,12
7,7,5,35,9,3,15,6
0,2,27,78,42,-29,-12,-9
1,-7,-9,11,36,-28,-1,-6
-29,-6,-22,-85,-84,-40,-5,-13
12,-2,-5,6,-8,63,14,13
-3,5,15,6,-20,-12,2,9
4,7,10,27,-34,15,10,5
-16,-35,-51,-124,60,-77,-43,-25
3,-10,-17,-64,-20,85,16,-1
-13,8,11,19,-5,5,4,0
6,2,-2,2,-42,-31,0,0
10,-3,-6,23,40,-16,-3,4
11,6,-9,-53,-34,11,10,9
-17,-6,-31,-66,17,-13,-3,-4
-21,-6,-35,9,13,13,6,-7
1,-3,2,-1,10,3,-2,6
23,11,11,127,18,-2,-5,2
6,-11,-36,-93,-58,-8,-13,-12
-6,19,36,127,127,-1,13,-7
-2,0,0,-119,-128,-11,17,13
-19,-50,-78,-51,12,-31,-39,-25
9,7,0,-46,58,15,6,8
9,10,9,30,24,10,4,9
9,6,18,127,79,16,1,1
-9,5,14,-11,-61,-5,0,-9
-20,7,15,127,121,9,8,-5
3,-11,-30,-128,-128,-38,-13,-11
-17,-26,-33,-44,-10,-6,-23,-15
-1,1,5,29,37,16,4,2
2,8,18,-5,35,-8,4,3
3,0,9,64,33,17,6,7
15,4,-3,32,16,-16,13,18
-7,17,22,80,-67,79,23,8
1,7,17,40,-10,26,10,0
-30,-52,-60,-128,39,-32,-47,-36
2,-1,-12,0,6,-4,-7,5
0,6,12,-13,-4,5,-2,-1
-6,-3,-1,0,-22,-29,-10,-7
2,7,0,4,-5,5,7,5
2,5,3,-16,10,20,13,9
2,3,9,50,31,-34,-21,-2
-7,-10,-18,-93,-44,127,32,-5
-5,-5,-2,-18,-65,-34,-3,-9
6,6,5,10,54,-50,3,12
12,1,-4,-44,-128,-33,3,0
-22,-23,-53,-128,108,37,-11,-11
-22,-2,25,29,-38,7,-9,-8
13,7,11,85,54,8,10,23
4,4,6,21,70,15,9,6
3,14,37,127,21,-19,5,-3
-20,-28,-35,-60,-64,-52,-36,-22
0,-15,-30,-49,-65,53,2,-8
9,-1,2,30,-22,-1,-1,-4
-23,9,9,63,52,59,6,-1
7,11,-20,71,127,-19,13,6
18,13,14,14,-128,-9,15,21
-7,-11,2,-26,127,3,-9,-14
-12,-11,-12,45,127,6,-23,-9
15,25,52,127,-35,19,26,18
0,-11,-39,-128,-128,-81,-13,-2
-17,-29,-54,-3,98,5,-34,-27
1,3,9,90,95,1,-4,5
13,15,24,6,-57,33,31,17
7,5,12,103,-19,-24,15,3
-15,4,11,28,77,44,4,3
7,-3,4,-11,-106,-53,-22,0
4,0,-7,-33,-56,-13,2,3
-3,-8,7,25,-25,-7,-7,-9
-29,-3,-1,-109,-82,28,-5,-11
-15,-2,31,127,127,18,-1,-16
18,7,-14,-128,-128,-41,7,19
-9,-24,-56,-102,-27,-13,-23,-10
2,-1,3,92,-32,-7,7,10
5,4,2,55,10,2,2,-4
3,9,2,115,29,17,10,3
3,1,3,-49,-17,-9,-4,-1
-9,-18,-47,-25,2,-5,-11,-11
1,0,7,-22,-1,4,3,4
-2,4,11,-23,17,36,12,3
6,9,-12,-6,70,-17,9,4
-1,-8,26,127,-25,1,-1,-5
-12,4,-3,-28,105,13,1,-15
2,2,2,-103,-81,0,0,2
-2,-19,-40,-41,-20,-45,-26,-1
7,8,9,75,127,8,0,5
0,0,19,61,-16,-73,-16,-3
9,2,0,21,43,94,22,2
2,-1,8,63,55,36,17,4
-5,-5,8,-32,-7,-9,-6,-4
2,0,4,119,37,-20,-3,0
-13,-4,-4,-52,-128,-2,-6,-15
-5,-10,-9,-128,6,16,-3,-9
-4,-7,0,90,65,-3,-4,-9
3,2,4,-17,-12,-8,-6,8
6,5,15,71,23,-9,-1,11
-13,-7,-18,-13,5,12,-5,-9
14,4,1,-3,-19,16,6,1
-8,8,12,37,-17,24,17,5
-2,3,2,-5,16,-16,9,2
3,-1,-7,-40,-66,-13,-7,-1
0,1,12,-17,-11,0,-6,1
2,-7,2,-11,76,-9,-3,10
-3,-11,-29,-101,-61,7,-18,-16
-2,-5,-27,-30,14,11,-8,-18
1,-2,-17,-27,-24,-34,-5,-5
5,4,17,22,-13,6,4,6
3,3,15,51,72,30,15,7
-4,0,1,26,6,-36,-10,1
-20,-16,-14,-33,-96,51,-10,-7
11,20,20,86,62,-7,13,4
-7,-12,-19,-128,-55,-33,-17,-12
4,9,23,127,52,15,4,3
-12,-18,-28,-128,-93,-27,-11,-8
-3,-2,6,45,0,3,-5,2
-2,5,13,59,79,-13,1,1
3,3,-7,-19,-54,-14,-4,4
5,10,22,62,112,4,4,3
3,4,17,127,57,7,0,0
11,9,-15,-128,-128,-34,9,12
-28,-59,-92,-128,27,17,-47,-29
7,4,13,127,109,19,6,7
-13,2,6,64,-13,-6,2,-14
0,4,10,33,-3,13,-7,-12
-3,1,5,0,-20,5,-1,-8
-1,3,4,-12,5,1,6,6
2,1,9,-6,35,34,2,4
4,3,3,-29,-31,35,12,11
9,8,7,-26,-38,-78,4,17
-8,-10,-22,-60,-6,-13,1,-14
-11,-12,-16,-76,-27,-13,-15,-22
-17,-1,25,-127,-78,-29,-10,1
-2,-2,13,63,-16,39,3,3
0,1,0,-81,56,10,-2,-7
4,4,18,127,60,20,-1,3
-4,-14,-37,-128,-128,-39,-9,0
3,2,3,-20,39,9,-1,-6
-3,-13,-22,-49,-10,-21,-11,3
5,9,14,66,47,9,4,8
-12,-1,-7,28,27,6,-10,-15
-14,1,18,36,-2,-2,-1,-20
7,-3,2,21,15,12,6,-2
-2,-6,-1,-6,-9,-2,-5,1
7,10,17,24,-6,-9,-4,5
15,22,37,127,77,20,21,13
-7,-3,-19,-113,-128,-20,8,-7
-29,-42,-53,-113,95,-26,-41,-31
-6,-11,-11,-30,-75,-22,-22,-4
3,-5,3,28,47,-11,-1,4
-6,11,12,57,18,-11,12,10
0,-1,5,33,6,69,7,2
7,-2,-30,-27,-18,46,6,5
7,1,13,104,-39,-27,2,4
1,7,25,-10,32,57,4,-7
-4,1,-11,-103,38,-60,-10,-2
-7,-2,5,-24,-128,14,30,11
-9,-8,-13,49,13,-23,-21,-22
-8,-16,-36,-12,47,-2,-18,-16
-4,1,-7,-5,-51,-45,-5,-3
-16,-23,-33,-128,-84,-5,-24,-16
2,6,9,54,90,45,1,4
5,4,10,19,56,-39,3,11
17,8,-11,39,45,114,39,21
-6,1,11,37,-14,-11,-15,-14
-13,-9,-15,-32,-17,-5,-9,-13
3,-3,-6,-110,-128,-57,-2,2
1,3,10,34,34,-9,3,4
-2,-6,3,-7,1,-20,-8,-1
1,-2,-9,-43,49,34,10,1
-5,4,4,-26,-42,17,7,6
11,5,3,52,23,6,-7,-1
11,3,-1,35,-22,-21,-6,-3
-33,-9,-20,20,25,2,0,-4
-3,4,12,-86,-100,-15,13,3
-2,-1,20,40,65,32,2,-4
0,-25,-38,-128,-116,21,-13,-8
-4,-6,-5,14,-11,-17,-19,-3
-7,-6,-1,14,16,-15,-16,-10
-8,1,10,53,20,36,11,-5
5,15,22,-27,35,10,13,3
-8,-11,-6,98,8,-37,-8,-9
4,1,-7,-128,-128,-4,4,8
-10,-12,-25,-47,13,-121,-28,-13
13,11,9,38,46,39,26,15
-1,3,18,127,63,44,7,7
-9,6,13,-49,42,-2,3,-8
6,-4,-12,13,0,1,-1,0
7,-2,-12,-51,-46,-7,-1,3
-5,-1,16,16,29,-15,-1,0
-3,4,-12,-20,31,42,6,0
-17,-19,-26,-48,-41,-51,-29,-19
3,6,14,-13,-9,-9,5,10
5,1,5,13,10,-13,2,5
-3,3,13,1,46,45,11,-3
-8,-13,-2,-25,-55,-25,-7,-5
-4,-6,-19,-13,-76,-21,-4,4
13,9,-5,15,21,-3,8,10
-10,-8,9,-34,-103,12,-8,-21
-20,-11,-10,-26,9,-48,-29,-23
1,1,8,66,43,-38,-1,-1
7,1,10,23,31,4,7,7
0,2,8,26,-39,-8,1,-1
-2,-9,-7,-48,4,-13,-6,6
12,5,-17,-113,-97,-27,-5,-1
-8,-4,-14,-35,-46,-10,-8,-9
4,8,24,125,79,42,18,-4
8,20,50,127,79,39,11,11
-18,-35,-84,-128,-128,-51,-28,-11
-5,-5,-11,54,-128,-58,-12,-11
1,2,9,84,10,7,-4,-5
3,6,26,102,72,-52,-5,3
-5,3,10,43,22,101,17,0
-10,-8,1,2,67,95,16,0
12,10,5,41,-70,4,19,16
-10,-10,-5,8,4,-50,-12,-11
-5,0,-20,-28,6,-19,-9,-9
0,-2,-14,0,42,3,-2,1
-7,-2,9,-43,25,-33,-9,1
4,6,10,17,-84,114,26,3
-3,-3,7,110,127,-14,-5,-9
-15,-26,-52,-128,7,-44,-20,-17
4,8,25,47,49,-17,-12,7
5,5,9,56,-39,46,14,6
4,0,-15,-128,-99,-92,0,7
-4,-5,-7,21,58,-10,-2,-3
-2,-4,-4,-11,-38,12,-3,1
-6,-8,7,28,-42,2,-18,-15
-6,-3,-15,-17,64,-11,-14,-8
-4,-2,-2,41,49,-44,0,9
11,16,20,11,-6,31,22,12
21,16,20,46,22,-58,14,21
-19,-19,-32,-128,-126,50,-5,-21
-25,-17,0,-48,21,-1,-15,-20
5,-1,-7,38,44,-3,1,7
7,12,15,67,79,1,1,8
5,-2,-19,35,-15,-4,13,9
4,0,1,-51,-107,-9,-4,3
-7,-3,4,-66,-1,12,-17,-8
-2,-4,12,72,20,-16,-11,1
1,2,5,41,89,6,3,-6
9,8,1,63,-39,22,30,14
3,20,29,46,-7,35,9,8
-1,-11,-10,10,29,16,-3,-6
-9,-23,-51,-128,-68,-32,-26,-25
-11,-18,-29,-78,-93,-29,-10,-13
-9,-4,-15,-9,100,17,-16,-9
1,-4,9,107,15,-1,6,7
4,-4,7,3,2,1,1,4
5,-5,-11,-13,45,-27,-2,10
7,11,16,-14,-102,37,13,1
-19,0,8,62,50,-6,-10,-17
1,-3,-21,-108,-51,-25,-10,1
9,2,-21,-95,-70,-20,-12,-3
6,9,17,67,-19,7,9,6
1,4,5,51,60,8,2,3
-6,-5,-2,-81,-83,-22,-9,-1
-1,-1,-38,-4,-53,2,-1,0
-4,-9,-11,63,96,-39,-11,-5
-3,0,1,13,88,63,12,4
-7,-6,-3,14,-51,-42,-3,1
4,7,9,-15,-27,7,1,4
3,2,-2,-23,-20,-15,-6,-2
-2,-2,-3,-18,7,-22,-7,-9
1,-2,-4,-27,-48,-16,14,2
1,3,-2,18,3,40,12,8
-1,0,19,72,82,10,-4,0
-19,-21,-43,-87,-90,-33,-27,-17
-8,-9,-7,4,22,-14,-4,-11
4,9,5,0,9,13,13,11
0,-2,8,-16,-16,1,-3,5
-2,-3,-15,-34,17,-9,-10,-10
3,4,11,9,-49,4,-1,7
-12,-16,-10,40,-11,-13,-14,-8
-4,-7,-7,-41,31,25,-5,-2
5,3,-2,86,-90,-10,8,-1
-2,-9,-4,-19,82,-7,-20,0
2,1,4,-65,-10,10,9,15
-8,2,0,-3,34,49,3,-17
1,1,-3,-3,-88,-65,-16,-15
1,-1,7,-4,24,44,7,-3
2,5,-6,74,102,6,5,5
-4,-6,-3,-76,-104,-22,-7,0
-5,-4,1,96,41,-20,0,-2
-6,-7,-15,-128,-42,-21,-12,-7
14,12,19,-6,-57,-50,8,21
3,7,17,82,54,20,7,0
2,2,18,68,16,17,9,5
-16,-10,-7,47,17,-35,-14,-5
-6,-11,-24,-61,37,10,-10,-17
1,-6,-6,-72,-128,-6,-8,-10
-6,-1,3,23,53,-44,-9,-2
-7,3,17,48,95,41,7,7
3,3,9,44,34,-13,-5,-9
4,10,9,17,-91,110,35,7
-7,-6,-8,-25,-65,-34,-17,-7
-3,-7,7,38,51,53,11,0
0,0,-8,-40,86,-8,-1,1
-1,-1,4,5,-36,-20,2,2
-1,-5,-22,-9,3,-11,-2,3
-3,-4,-12,-50,-36,-4,5,9
-2,4,8,28,-4,-17,0,-4
-2,5,13,104,40,53,6,-1
-2,-3,12,68,25,9,-2,-5
-6,-23,-40,-128,-57,-46,-24,-14
-1,12,28,78,29,-10,3,-2
2,0,9,-36,-113,25,8,14
-3,-7,-1,62,127,26,-3,-1
8,13,9,-62,7,-33,-1,13
-1,-9,-23,-112,-120,50,21,-6
-5,-9,-14,-9,-17,-36,-25,-9
-2,-1,8,63,24,14,-7,-3
-11,-11,-11,4,9,28,-15,-12
-1,3,0,-8,-11,-18,17,8
1,-2,8,4,69,-14,9,3
-1,-8,-5,-56,-16,5,0,-1
5,11,3,20,-3,7,3,4
1,4,7,71,-10,6,0,1
-2,1,3,-71,-17,-24,-5,0
2,-3,-6,15,-5,9,-2,1
-13,-4,-2,127,37,-27,-21,-22
-8,-18,-33,-128,-95,2,0,-14
1,-8,-8,10,-10,-29,-8,0
9,8,9,7,-8,4,3,6
-1,3,-2,-12,-10,-12,-3,1
-4,0,3,63,127,50,6,-3
-1,2,-5,14,-92,16,5,5
4,7,19,31,-68,7,4,5
-1,-17,-21,-125,1,-18,-9,-3
-27,-13,-16,-72,33,-35,-19,-14
3,5,9,91,28,51,1,-1
21,18,4,-108,-24,17,21,18
-11,-12,4,61,87,-16,-18,-16
-8,-6,14,127,78,-45,-3,-8
5,5,4,-41,-10,90,24,0
-2,0,-11,-12,30,-27,-6,-3
-1,-6,-21,-128,-125,-8,-10,-1
-2,5,30,20,-43,-33,-13,-5
0,0,5,10,-27,0,-10,-4
-2,-2,-1,56,102,32,23,0
-3,-4,19,84,-6,-19,-9,0
-1,-6,-14,-40,-2,-13,-19,-10
-7,-10,-12,-62,15,-34,-7,0
2,4,5,2,-5,6,6,-1
3,10,6,-10,2,-43,-2,3
-6,-8,-9,14,-6,88,10,-6
-7,-6,6,14,-18,-38,-8,-7
4,3,-4,27,41,-7,-1,5
-3,-1,2,4,-13,-18,-10,-8
-6,-5,-19,-32,0,10,-6,-6
-13,-13,-22,-128,-72,-4,-3,-7
-7,-12,-14,-43,53,-25,-10,-3
2,2,7,-30,-52,-17,-6,4
17,19,27,49,19,27,15,20
4,7,-13,-28,-105,-35,5,-3
-14,-3,11,17,24,5,-10,-12
3,0,1,12,51,36,6,3
-2,4,18,33,3,-12,4,0
-2,-10,-21,-9,-25,29,2,-2
0,-1,3,-128,-35,-9,-6,-4
-8,-13,-22,-14,50,-54,-13,-8
1,-9,-12,85,1,29,-7,1
9,8,9,12,52,-21,-2,7
-25,-19,-10,29,-73,-25,-22,-22
18,18,3,-10,122,81,28,12
5,5,-19,-128,-128,-37,-2,4
-15,-16,-13,0,77,-28,-28,-21
2,3,9,20,75,-5,3,6
4,5,12,33,44,5,14,10
-6,-1,-6,16,21,13,-8,-7
-4,-7,14,0,27,-27,-3,2
20,12,-30,-19,-74,23,7,7
-12,-4,-3,3,-52,-23,-6,-19
-12,-9,-5,-72,39,2,-8,-23
-1,-3,7,45,22,-23,-6,3
-1,0,0,10,90,52,11,-1
-2,-2,-8,-86,-128,-22,-6,-1
0,-5,-24,-90,-55,-14,-14,1
-1,2,-5,-14,-1,-58,-8,-4
4,6,11,-25,-95,127,23,5
-2,10,14,-16,127,0,9,1
1,-10,-11,127,63,5,1,2
0,-4,-12,-107,-62,-15,-4,1
-10,-11,2,24,-11,-14,-12,-7
-3,1,-7,3,5,-8,0,-2
-1,2,2,2,5,-2,2,-4
-5,-3,1,-3,-24,-4,-11,-6
-2,3,8,37,15,7,6,1
4,3,-4,2,12,-28,0,4
12,12,8,-39,4,34,9,17
0,-4,-6,1,-48,2,-9,-9
-5,-2,4,127,83,31,2,-27
-6,3,6,32,40,17,7,-4
-2,-15,-34,-128,-128,-40,-11,4
-11,-18,-19,47,78,-27,-19,-15
5,-2,11,87,107,37,0,3
-8,2,11,75,-18,30,12,4
6,8,11,28,5,-6,5,13
-3,-2,-5,6,21,-6,-11,-5
1,-3,-7,2,-39,21,16,2
12,19,37,56,94,2,10,6
-9,-30,-101,-128,-128,-48,-14,-4
-2,-10,-14,-10,-41,-18,-13,-5
-4,0,8,53,-12,-21,-1,-1
1,8,21,85,36,-10,3,-1
-7,1,7,81,22,44,2,-8
-7,-10,-15,-86,-31,13,-9,-8
-5,-5,6,3,34,-38,-21,-3
3,7,14,0,-11,48,20,10
6,2,5,-8,19,6,14,5
-7,-8,-10,1,-38,-6,-10,-8
-4,-9,-11,-7,24,-14,-13,-6
-4,-4,1,-42,-33,-31,0,-3
-3,-2,-13,-44,-41,-5,3,2
8,7,12,13,41,11,15,13
5,6,10,31,10,-4,-7,-7
-21,-18,-21,-25,-15,-26,-29,-29
0,-3,0,-17,6,15,1,3
0,-7,-10,-6,10,-7,-4,4
4,0,-1,-6,7,7,-1,-7
6,17,31,127,83,23,21,17
3,4,-10,-128,-117,-10,10,9
-8,-12,-25,-118,-113,-67,-25,-3
-9,-12,-27,43,127,15,-11,-10
1,2,19,41,-4,-5,-9,-7
-3,6,3,-61,-36,-4,-2,0
2,-3,-19,81,63,6,-3,-4
2,1,2,-15,-17,-48,-4,6
-1,0,1,15,25,-22,-15,0
3,6,7,43,-38,108,25,4
10,9,5,94,-3,-1,21,11
-14,-15,-19,-14,-12,-36,-25,-12
-2,-10,-21,-60,56,6,9,7
0,6,15,84,-101,-6,4,-5
-14,-15,-36,-128,-45,-30,-27,-27
-8,-15,-25,27,46,-7,-14,-6
5,10,9,-26,-93,6,3,5
-2,5,10,3,-28,19,1,-5
-6,1,17,127,127,2,-8,-5
1,1,-3,-39,-32,11,11,4
3,-1,5,-47,-35,-24,-6,3
-1,-1,4,14,-4,-31,-1,-8
2,-3,-20,-30,-12,27,6,4
9,9,17,1,60,59,17,18
-2,-1,-4,-43,-11,-24,-12,-12
-14,-15,-21,-34,-63,-34,-16,-15
12,12,4,26,31,38,20,12
-2,-2,6,-27,-17,48,-5,-8
-8,-8,-9,5,11,-19,-10,-6
3,-3,-26,31,27,-34,-2,-1
-10,-6,-10,23,48,63,-2,-6
5,0,10,0,37,-52,-1,5
2,2,2,0,-97,-13,-1,3
-2,0,0,-13,-9,-12,-3,0
3,6,-2,-53,-10,-7,-2,2
3,1,0,-3,45,-82,-12,2
-9,-16,-25,-17,-79,16,4,-14
2,-2,2,37,-17,-44,-5,0
-1,0,2,-73,20,-40,-6,5
-5,-11,-18,-69,-22,29,-3,-1
5,3,18,127,40,16,5,-1
-9,-14,-23,-88,-14,-20,-21,-15
-3,-4,-20,-89,-2,-19,-7,-7
-7,-6,0,-112,-90,-32,-7,0
-1,1,3,23,2,4,1,-7
2,11,1,120,93,-20,8,6
11,19,69,127,13,53,42,22
-17,-43,-128,-128,-128,-81,-36,-15
-25,-34,-38,-5,95,-11,-30,-22
-8,-3,9,97,29,16,-1,-8
15,14,16,49,31,34,10,6
12,8,9,45,6,-5,4,10
-12,-1,7,26,26,-20,-4,-11
-4,-3,18,-59,-38,-9,-9,-9
-3,5,1,5,4,49,9,-1
1,-3,1,-14,-45,-28,8,1
9,2,-5,21,8,-1,8,11
1,-8,-6,-13,-3,-13,-9,-6
2,5,3,-14,38,3,1,-4
-2,-3,-3,-14,-43,-6,-4,-6
-4,-5,4,-26,-50,-58,-20,-2
4,2,4,51,106,41,-1,2
6,-1,-31,-10,-54,10,17,11
-6,-6,1,-36,14,-30,-6,-7
0,3,18,127,32,-2,3,2
12,18,17,97,31,-56,12,13
12,10,1,100,24,32,9,-1
-21,-32,-45,-128,-128,19,-24,-28
-15,-27,-47,-121,36,-61,-26,-22
-7,-3,5,10,43,-5,-7,-2
3,4,10,38,21,-5,4,3
8,6,12,23,19,-1,4,7
2,7,6,24,6,-22,-1,2
1,5,5,2,-8,40,9,4
4,7,5,34,39,-77,3,-1
6,10,14,13,-4,105,19,15
0,-13,-36,-36,0,42,-6,-5
-7,-16,-26,-76,-31,-3,-21,-14
1,0,-3,-58,-45,-19,-2,0
-1,-1,-2,30,5,-18,-7,-1
3,3,11,19,10,0,11,10
13,11,8,62,31,7,12,14
-2,4,22,23,14,-5,-17,-6
-23,-7,-14,10,-6,-29,-22,-31
-13,-17,-21,-112,-33,-11,-20,-21
5,1,-25,12,8,72,16,7
10,2,13,12,14,-38,14,15
5,4,6,35,-20,-9,-1,7
4,6,11,2,12,6,8,3
1,0,0,6,25,13,10,-2
-4,-5,2,19,20,9,2,-1
-1,-1,0,-10,1,-4,-7,-3
-1,-2,-2,1,-8,-15,-7,0
-2,3,7,51,9,-13,-6,-5
-2,0,-12,-64,6,27,1,-1
4,13,42,113,127,14,22,10
4,-6,-24,-57,-117,-33,-2,5
-2,-9,-4,127,76,107,0,-12
-3,-8,-19,-9,20,3,-4,-8
-14,-19,-46,-128,-95,-35,-20,-11
-7,-9,-22,51,36,-56,-20,-10
2,3,8,82,57,42,8,6
4,7,28,109,21,5,9,8
5,16,25,66,37,10,17,10
-2,7,8,24,-12,-4,-1,-7
-9,-13,-25,-99,-68,-22,-14,-12
-9,-7,11,16,41,18,-1,-7
3,0,6,-7,5,7,17,19
16,18,10,-19,-10,-12,-2,1
-13,-6,10,-24,-28,-15,-15,-18
-1,-3,-9,-26,-19,5,0,2
-4,-6,-10,-18,9,-17,-5,4
0,1,8,9,-6,-13,7,-6
-4,-4,10,-55,-29,-21,-5,6
-6,-5,-11,27,-5,28,8,-5
-3,-6,-10,31,-7,-14,-3,-4
2,4,-1,-53,11,16,-5,-4
-7,-10,1,-11,6,-44,-11,-10
0,-1,-5,44,43,41,2,3
7,7,4,-10,-5,11,-5,-2
-1,1,5,85,29,-15,9,-3
-11,-14,-20,-94,-88,-39,-13,-12
-13,-15,-22,-12,28,8,-16,-10
2,4,12,-27,-6,18,3,2
-4,2,14,24,28,-36,-3,1
3,6,-5,-84,-13,0,4,6
-5,-7,-4,46,-4,-3,-8,-9
0,-7,-33,52,9,-31,-2,1
-5,1,7,56,22,14,-10,-5
0,4,1,31,-35,-87,-11,-4
-2,-11,-18,63,-38,53,22,1
3,-6,-9,-84,-29,-30,-5,0
-6,-11,-29,-108,-57,-7,-1,-4
2,6,12,7,-57,-6,2,-1
1,10,14,43,85,-43,-12,-5
8,12,21,118,79,52,7,2
-14,-31,-75,-128,-128,-69,-19,-14
-11,-15,-10,46,-21,-46,-23,-14
1,2,5,52,47,-2,-2,0
12,15,20,64,15,19,17,20
-6,-6,1,-2,23,5,-1,-6
-16,-21,-13,-16,-16,-40,-27,-22
24,25,15,18,5,-40,16,19
7,12,6,6,34,78,6,0
-5,-9,-12,-14,-9,41,15,-2
-12,-9,-5,-37,8,-58,-8,-6
-4,-4,10,19,-28,2,3,-4
0,1,6,54,-30,33,2,2
-1,-1,0,-42,56,-8,-4,-3
-13,-16,-20,-58,27,-115,-35,-14
-5,0,4,29,48,86,14,-1
13,5,-7,89,25,77,12,10
1,-1,7,-5,6,-19,9,2
-1,3,5,-46,-49,-50,-7,-3
-20,-23,-22,-128,-99,4,-4,-12
-9,-9,-4,-6,-20,-26,-15,-11
5,5,-6,1,29,9,7,8
-2,2,17,74,36,-24,-11,-10
-3,-3,14,-83,-85,26,3,-8
1,-2,-8,14,39,20,6,7
-5,-9,-10,8,19,36,-7,-5
3,0,3,1,38,-25,4,14
0,4,5,-35,2,-32,1,-6
-17,-6,-9,32,62,12,-9,-10
13,15,16,53,-31,-11,14,7
-5,6,32,-19,-35,-20,-8,-11
-16,-26,-46,-128,-112,-75,-33,-18
-9,-13,-16,26,39,0,-13,1
-5,3,13,7,108,-10,-1,-2
7,5,11,87,-7,-7,19,13
11,6,13,12,7,46,9,6
-5,-7,4,34,-17,-6,-6,-3
0,5,17,28,-26,-15,1,0
1,-1,2,-53,21,-37,-3,-5
3,8,7,8,-45,87,20,9
5,1,-10,41,85,6,-2,3
-14,-32,-37,-128,-128,-74,-28,-18
-3,-4,-15,-15,-37,-11,-12,-6
0,5,13,32,74,-30,-4,-1
4,12,19,127,-28,38,11,9
3,1,-3,-71,22,12,6,1
-5,-5,-7,-66,-31,-22,-9,-6
-6,3,1,69,26,-2,7,0
4,2,8,-79,-76,-9,-2,6
11,18,15,127,127,15,8,13
-12,-11,-13,-73,-10,-23,-17,-20
-14,-28,-41,-128,-98,-20,-36,-20
16,17,18,78,41,-16,21,22
2,3,-1,26,-11,22,6,0
-7,-7,-7,-34,-1,-11,-9,-6
-12,-9,-15,-25,-26,-22,-5,-8
7,9,2,64,28,1,8,15
-5,-1,-12,-17,4,-8,4,-13
-1,-1,6,7,38,48,-11,-12
-8,-9,-15,-57,13,30,-5,0
5,2,5,-17,-85,-122,6,14
8,5,17,30,-6,-18,-3,-3
-1,3,6,76,46,59,5,0
5,8,-1,52,-34,-29,10,2
-4,-2,-5,-117,-9,-122,-32,-6
-6,-16,-29,-128,70,127,19,-7
3,-2,5,71,-27,2,3,4
5,7,-4,78,73,-17,4,5
0,5,45,91,49,-25,-3,4
5,10,4,-26,-58,2,-1,0
-4,2,19,57,18,-23,-15,-8
-8,-5,-10,-26,9,-28,-6,-8
1,-8,-22,-128,-90,29,2,3
-9,-15,-24,-79,2,-12,-12,-8
-1,4,14,127,97,-3,0,0
-4,-3,-1,34,-13,0,-1,-1
8,9,11,-5,20,3,11,11
-6,7,16,-15,-44,15,0,-9
-20,-23,-33,-12,-1,-16,-23,-26
-11,-12,-7,-22,-3,31,3,-4
-2,5,-2,5,1,-31,-8,-9
5,6,5,6,6,7,4,5
-2,-2,5,-27,-27,-3,4,-4
-2,-1,6,13,25,-68,-15,-4
15,7,6,36,-3,107,29,18
-11,-9,9,-69,46,-57,-21,-18
-6,-6,2,13,43,76,6,-5
1,-4,-2,-27,-51,-25,0,-1
-3,-1,1,51,17,31,2,-1
4,6,14,122,90,5,10,9
-6,-11,-25,-128,-22,-11,0,-1
6,2,12,22,-49,-60,-18,-1
-9,-4,7,66,42,-3,-4,-10
4,8,9,16,59,107,16,3
-3,0,10,1,-15,-29,-5,1
-3,4,15,122,22,-22,-3,2
-1,-2,-19,-98,-12,113,17,-6
1,7,-2,-100,-63,29,7,7
4,-1,3,-24,-18,-9,-5,3
1,2,4,44,-28,-34,-2,-1
-4,-10,-14,-108,-51,-25,-14,-5
-13,-15,-36,-128,-6,-58,-16,-11
-10,-4,-4,127,55,82,-4,-13
7,0,-5,-14,-22,-15,4,5
0,0,8,67,72,15,8,4
7,6,5,13,16,-8,4,10
10,12,2,-23,-13,6,-2,-5
2,-2,-1,-14,-47,-8,-1,1
-12,-4,-7,-1,-37,-72,-18,-12
0,-2,2,22,9,61,8,-10
-4,0,-3,-48,3,26,0,-3
1,-5,-4,-45,-9,-7,3,16
-9,-8,-15,-8,-15,-37,-16,-9
-4,1,1,18,42,1,13,2
3,4,13,64,119,26,0,0
9,2,3,28,-128,3,2,7
-12,-14,-26,-59,49,-18,-17,-10
-3,-6,-14,-57,89,-64,-14,-6
-1,10,27,62,40,34,2,-2
-7,-5,3,-13,16,40,9,-12
2,4,-1,-75,-33,-25,-13,-2
-5,-3,3,127,13,31,7,-8
0,0,3,24,2,-47,-8,6
-2,2,4,-31,-18,-2,-3,-3
3,3,4,38,56,32,9,-1
-5,-14,-37,-128,-70,-26,-10,-6
-17,-22,-18,-69,-78,-10,-23,-14
0,6,-5,-22,-25,-21,-2,2
-1,3,-5,48,16,-18,-2,-6
4,4,-1,56,52,98,16,1
-3,-5,1,66,-16,-33,-2,-7
-7,-5,23,-58,-2,-38,-16,-2
3,14,15,127,5,18,4,2
-3,-4,-17,-78,-17,-5,4,1
-4,-14,-16,-102,13,-4,-3,-4
-4,-6,-53,-14,33,-3,-8,-5
2,1,-1,10,-21,-5,1,5
-4,5,18,20,3,-22,-11,-5
-6,-23,-83,-86,-39,-26,-3,-6
-7,-13,0,3,-36,50,21,0
-3,-2,15,50,21,26,-7,-9
5,2,-2,-29,2,-51,-13,0
-5,-4,-11,-30,63,39,2,-3
5,8,14,127,50,-39,20,10
2,4,5,-19,-95,-41,2,2
-9,-9,-26,-128,-10,-26,-13,-8
-8,-12,-11,23,1,-12,-13,-5
-1,1,10,-26,-14,16,-5,0
-8,-7,-9,24,1,-22,-11,-9
0,-2,0,-14,4,-9,1,1
-4,3,12,17,13,20,-2,-5
-1,6,4,41,9,11,2,-1
-8,-7,-9,-4,49,-5,-17,-5
-1,-1,-1,69,-35,-73,11,0
4,9,-11,-46,45,121,23,6
-3,0,13,48,-57,-32,-7,-6
4,2,-9,-51,-34,64,5,5
9,9,7,-34,40,7,11,8
-3,1,9,118,62,1,-4,-2
-1,-4,2,-45,-31,-13,-6,2
-4,-10,-23,28,-16,5,-7,-7
-3,-2,2,-29,78,-10,-4,-4
2,3,-5,-34,-59,-4,7,6
2,6,22,34,18,-64,-11,-1
4,5,25,70,47,71,15,9
-7,-18,-42,-97,-87,77,-7,-16
-18,-21,-29,-40,35,-48,-25,-22
10,13,19,106,5,10,17,13
3,-1,8,29,0,-45,-1,2
4,11,4,-39,41,13,-9,-5
-2,-2,2,3,26,51,0,-1
4,4,26,115,2,-12,4,5
-5,-9,-21,-47,-37,-13,-2,-4
-1,5,5,28,40,-23,-2,-3
-5,-1,2,1,-4,-13,1,-1
-8,-13,-22,-96,-76,-6,-11,-10
11,1,-9,4,30,52,18,14
7,13,21,60,27,0,-1,0
5,9,2,45,19,21,12,1
2,4,-1,-3,32,-58,-6,13
-5,-5,-10,-18,-15,22,-6,-2
-3,-3,-5,1,-22,14,-6,0
-12,-15,-16,-38,-19,49,5,-9
-7,-7,-5,13,36,-20,-14,-14
-6,-6,29,-34,-42,-78,-19,-9
2,3,6,65,91,73,10,9
6,7,7,2,-32,-29,8,3
-13,-17,-33,-61,9,3,-19,-20
-7,-14,-13,-7,-40,-31,-7,-5
-2,2,8,1,-10,-7,-3,3
0,0,7,7,15,-18,-7,0
1,2,9,28,58,-8,-4,-1
5,2,-13,4,-55,-12,10,4
-4,-5,-5,-8,-22,13,3,2
5,5,18,55,3,-82,-19,6
-4,7,13,-2,1,127,42,-2
1,6,27,127,83,-18,-5,-2
-8,-18,-24,-99,-33,-42,-23,-7
-12,-21,-37,-128,-53,-65,-17,-10
0,-4,-7,-79,-126,18,-7,-1
0,3,13,68,63,-11,1,0
2,5,27,51,69,40,7,7
-1,4,4,27,22,-23,-6,-1
-4,8,30,127,127,53,9,-4
3,-10,-24,-128,-128,-40,-1,3
-1,-3,-28,-128,-57,-8,-9,3
-1,2,1,105,-26,-25,-2,1
-7,-7,-17,-33,6,22,2,-10
-3,3,6,-6,17,-1,-6,-11
2,-1,10,49,1,-5,-2,2
3,6,16,-12,29,16,4,5
-3,-1,-2,5,13,46,4,-2
-2,-3,-7,-7,1,-19,-14,-10
-1,-4,4,2,2,-22,-6,-4
-3,-6,0,-12,-16,-28,-10,-3
0,0,6,-18,3,5,-5,-3
-4,-3,1,15,-8,-46,0,-4
6,1,4,-20,21,11,15,11
-2,2,-9,-2,-22,10,5,3
-7,-8,-2,-8,-13,-46,-15,-11
3,1,6,39,33,55,0,-3
-13,-6,-10,-17,-42,-65,0,-12
0,1,9,46,-5,127,16,4
6,7,-14,-18,14,-30,7,7
0,-8,-6,9,-93,-41,-11,1
7,0,20,12,51,-5,-2,6
-7,-3,-19,-67,3,-14,-13,-9
-2,-2,-15,-112,-37,30,13,2
-1,-1,4,-51,-61,-11,-6,1
2,2,10,80,43,-17,2,1
-2,8,20,30,26,34,-1,-2
2,2,4,66,8,-32,1,4
-13,-15,-17,-33,7,16,-12,-10
5,4,-2,-66,-14,-28,6,5
-1,1,11,36,32,49,-3,-2
-10,-12,-6,-31,-128,-13,-12,-12
8,8,8,48,79,-22,1,10
-5,0,-2,75,52,-3,-6,-2
-7,-10,-11,-89,-45,65,5,-4
-9,-20,-46,-61,-37,-5,-12,-7
-2,-13,-19,-69,-28,-25,-6,-6
0,-2,-16,9,6,6,-2,-1
-6,-2,-2,-4,-44,-16,-8,-7
16,18,15,71,99,-22,7,16
0,-5,-2,18,-57,98,22,-3
-3,-6,-5,-95,-2,-42,-16,-8
0,-2,-14,40,-3,-23,-1,15
-6,-6,1,19,62,2,4,3
-1,-4,-7,-70,-61,-39,-2,4
0,4,-2,-39,-12,8,-13,-8
2,7,10,81,88,-50,8,2
-12,-7,1,-5,7,66,0,-12
-7,-17,-33,-97,-91,-8,-12,-7
-11,-7,-2,-9,1,-11,-10,-13
7,9,-3,15,48,-41,1,12
15,13,18,85,40,65,22,12
1,3,1,-58,-51,35,3,-5
-11,-18,-21,-113,-29,17,-11,-9
-10,-9,-7,38,20,-10,-4,-5
-8,-8,-16,-39,-27,-58,-11,0
-6,-5,-5,-50,-2,24,-3,-2
5,14,28,53,11,-20,8,5
-11,-10,-19,31,-22,10,-1,-14
-1,-4,-17,-73,9,-4,-6,1
4,4,-1,-53,20,-4,4,8
-6,-6,-6,48,5,-22,6,-4
-8,-6,21,32,-16,31,-4,-11
3,6,29,44,46,-7,0,6
2,4,-5,28,43,-19,-3,4
-10,-6,-11,-34,-34,21,0,-11
-3,-3,8,33,-22,-3,-2,-3
-7,-3,18,27,14,-11,-8,-8
-12,-12,-41,-42,87,-14,-7,-15
18,13,16,-11,-40,19,17,21
4,2,12,56,-55,-24,-5,-1
-14,-21,-33,-91,-34,79,-6,-16
-10,-16,-35,-112,-71,11,4,-9
-2,1,16,30,7,-44,0,4
9,6,27,80,73,32,17,9
4,6,3,10,30,-7,-2,2
-6,-5,-7,10,37,-35,-16,-8
-8,-1,6,17,-42,-1,-10,-11
-1,-2,-10,-76,-68,-5,13,2
-1,-5,-2,10,24,49,-5,-4
10,5,-11,-11,17,-3,8,13
-1,-5,-2,10,24,49,-5,-4
10,5,-11,-11,17,-3,8,13
1,-1,3,75,41,-28,-13,-6
1,4,12,-33,1,38,24,2
