Channel_1,Channel_2,Channel_3,Channel_4,Channel_5,Channel_6,Channel_7,Channel_8
28,7,1,-12,-7,4,5,10
28,5,7,-5,2,-19,1,26
29,-5,-10,-8,-14,-9,-7,9
-27,-6,-3,-4,-13,-1,-10,-28
-68,1,1,13,61,-7,-4,-7
60,1,6,15,-40,-34,1,5
-61,-4,-9,-26,43,24,-2,4
16,5,11,46,-21,3,0,-5
-8,-6,-17,11,26,-78,-9,3
3,-4,15,27,6,111,7,2
28,-4,-29,-128,-8,6,19,5
6,11,-2,-5,-87,-21,-6,6
-8,-6,-8,-7,-7,-79,-11,0
34,-4,6,-35,67,38,4,6
6,0,-11,-40,-21,-53,-10,-3
36,2,-2,42,7,-8,-8,-2
65,12,11,-3,-5,-56,4,10
-26,5,16,7,72,57,16,19
-107,-19,-6,9,-29,30,-11,-41
34,-3,-16,10,4,-57,-22,-29
49,0,-16,-34,-27,38,3,15
107,10,25,32,35,15,11,45
-128,-8,-12,2,-21,3,4,-41
7,-1,-15,-1,26,-45,-24,-15
16,6,0,1,-125,-59,11,7
3,-4,-8,-4,75,-34,-8,-8
-67,-14,-1,7,-46,40,-3,-4
-1,-8,-14,-26,17,-19,0,2
6,10,4,6,-5,-58,-9,-3
-9,-1,-1,-8,-15,83,1,-8
23,-5,9,4,-13,-64,-16,6
41,7,6,14,-29,-43,-6,9
-28,0,2,9,40,7,0,-32
-31,-12,-9,-16,83,-18,-10,-25
-7,-6,7,25,-59,-24,-3,-5
4,2,0,-20,-3,-1,2,13
38,-2,-11,-8,-22,-36,-1,15
16,5,7,31,43,-25,-15,-3
-9,-3,0,17,-20,-42,-8,-1
2,3,1,-9,-17,96,21,10
33,2,7,9,-40,-56,-25,7
23,-4,-17,-43,56,54,12,4
-25,2,23,56,6,-2,-11,-16
2,2,-16,-12,4,-1,5,-3
-31,-6,-10,13,-54,-21,-7,-16
19,-10,-12,3,-9,-20,-7,16
20,-2,6,7,13,-23,-6,-1
5,-2,-17,-11,-3,-33,-4,5
0,-2,-7,-16,-7,-15,-6,3
-1,2,9,5,9,-36,-3,5
-5,0,9,2,34,-58,-8,0
-7,-5,3,31,-1,127,18,-5
16,-3,-17,11,21,29,1,8
-18,-3,-1,-3,-18,-32,-13,-8
92,9,6,-12,-25,-31,13,36
-25,-8,-2,-23,-1,69,-1,-21
4,-22,2,5,-46,-29,-3,-30
-2,0,-2,17,100,5,-1,-36
51,21,9,13,-57,-33,-14,7
-45,1,3,-13,-34,-35,-2,-1
11,-7,-8,2,-23,-8,2,21
16,-3,-12,-12,-5,39,2,8
-6,-13,-3,25,-3,3,-3,-4
6,-5,-10,-23,41,-42,-11,7
-8,-3,10,33,-29,11,1,-4
-1,2,-5,-35,-91,4,7,-2
-11,3,11,-16,11,14,-4,-4
-3,-6,-5,9,5,-32,-8,-6
6,5,-8,2,-20,-85,-10,6
6,11,-5,18,66,109,28,15
-14,3,20,0,1,-7,3,-3
25,0,-13,-42,-7,-10,0,3
-60,-9,6,21,-49,-18,-16,-24
-19,-7,0,2,2,60,6,-8
4,0,13,5,27,-12,-2,11
4,3,14,7,-13,-57,-5,1
-2,-5,-15,-15,43,9,-10,8
67,10,12,-15,-18,56,8,21
4,-3,-24,20,-38,28,11,1
-95,-24,-1,-5,22,-48,-3,-25
19,-6,0,6,48,-1,-2,2
71,8,-1,5,13,-82,-18,-3
-44,9,0,4,-55,52,-7,-43
26,-4,10,-16,19,-27,0,7
10,-5,14,30,-10,-26,-12,-1
11,-6,-32,-84,-70,10,14,13
6,-1,-7,-14,-19,-9,-1,2
5,-1,-1,-1,47,-3,4,1
-2,-7,6,16,6,-15,0,2
-1,2,3,-2,-20,-96,-18,-2
27,-2,-2,3,54,86,10,1
-96,-12,9,6,-44,28,5,-8
-6,4,1,-9,-11,-38,-5,-4
16,2,-6,-1,-28,-7,8,10
18,5,-8,5,42,-10,-3,3
72,15,16,28,40,-25,-2,15
-27,-7,-2,27,-53,3,-2,8
-23,-16,1,39,79,90,3,-33
-25,-11,-26,-36,-6,-35,-17,-39
10,0,-17,-21,-22,-57,-11,-3
1,2,7,-12,-30,-39,-2,7
14,2,4,16,-23,39,16,27
21,-7,-14,-56,24,-6,-12,13
-35,3,2,13,43,32,14,-22
13,7,2,-53,-48,-83,-16,-15
-15,-16,-17,-22,-46,37,-9,-2
18,5,-1,31,-43,-46,-3,8
-9,0,-2,7,73,53,11,11
57,-3,-7,12,1,-11,-5,-3
-128,-18,0,-6,12,-18,-7,-12
69,7,15,23,-8,-2,13,36
37,6,-15,-43,21,-57,-16,-26
-46,-10,-8,-8,-24,69,14,-16
25,-8,12,17,3,4,-4,4
-41,2,-8,8,-14,-2,0,-4
10,-8,-10,19,35,-37,-4,-17
-11,4,-10,-14,0,45,9,3
12,4,2,25,1,-16,0,1
3,-5,-6,-36,-4,-17,-5,2
-1,-5,-10,-1,-36,2,-3,1
1,4,3,-27,37,-23,-4,7
-19,-1,-2,-6,-94,-61,-12,-1
18,-4,4,-11,89,65,4,-6
2,7,0,47,70,127,29,2
-42,-2,0,20,-45,-26,-10,-9
-3,-5,4,-7,-1,-33,-4,-5
-7,-12,-7,-15,17,-19,-10,-5
22,5,6,-11,19,5,7,23
-6,-6,0,34,5,-10,-5,-1
-23,-1,-6,-20,-37,-9,-9,-14
6,-4,-15,-9,-2,-64,-23,-39
-1,-3,-3,-7,-2,12,-4,5
5,-2,-11,8,49,10,-4,7
3,0,-1,-11,0,-5,1,8
-2,-2,2,-9,-52,-48,-5,4
3,2,-2,-1,63,20,0,6
0,-3,-4,-9,-57,-17,-3,-1
0,0,-1,1,-10,-13,-2,-1
-1,-3,-3,-9,16,0,-5,-5
-3,0,-2,-8,-3,-25,-7,-5
-4,1,2,-3,4,-43,-7,-2
17,-2,-4,-6,3,63,5,-3
4,-1,-6,-2,25,14,1,-4
7,3,1,9,-62,26,9,20
36,0,0,-24,-3,-3,4,0
-15,5,2,3,24,-14,-2,7
-40,-22,-11,1,-36,-17,-10,-24
-4,-10,-11,-24,-18,-17,-9,-22
17,-3,3,5,1,-40,-6,2
25,7,13,31,-10,-34,-16,13
8,-2,-3,-24,82,-8,2,15
3,4,3,4,-93,-11,11,3
-16,-5,-1,6,6,-22,-18,-27
-12,0,-6,8,7,21,-8,-26
-2,1,1,12,29,-11,-2,2
32,-3,-2,-14,-22,-31,-5,3
16,-2,-1,-34,18,68,21,9
-11,-5,-9,-19,-5,-49,-6,29
-9,5,-6,-2,-68,6,-4,-3
-10,-8,-8,9,-4,-21,-9,-22
6,-2,-3,21,52,-22,-8,1
4,-2,-7,-30,-31,61,37,14
1,-3,4,51,11,-21,-4,-5
11,-11,-16,-55,-75,27,2,-2
-43,-10,-18,-9,-66,-12,-5,-7
-9,-3,-2,14,105,9,-5,-6
48,8,8,24,31,-10,2,16
38,2,-8,-29,6,-81,-12,0
-88,-17,-3,4,-18,-15,-7,-5
35,-6,0,-18,-53,47,14,16
10,4,4,-23,-46,35,13,-23
-8,6,-7,6,27,1,0,-4
26,4,8,11,-15,-20,-3,5
7,-4,-13,3,-32,-33,-10,-3
6,-1,2,-4,23,29,4,8
3,-5,-4,7,25,-7,-2,6
2,0,0,-2,-7,-27,-1,-2
-6,2,4,-24,-67,-56,-16,-6
6,1,-13,-29,50,-34,-4,8
-17,-1,8,59,6,127,50,15
8,-2,-1,90,42,-8,-11,-14
94,1,-14,-48,-67,-94,-29,9
62,5,-11,-1,57,49,18,13
-128,-22,-2,-8,-17,-9,-3,-24
-13,-22,4,3,-26,5,-15,-47
43,9,4,-11,-18,0,-4,-2
34,16,1,-2,-24,-8,3,14
15,3,-1,0,23,-6,5,14
11,2,3,10,-11,-57,-14,1
13,3,6,7,86,-10,11,14
-64,-11,-8,5,-28,52,4,2
-9,-7,-6,7,-12,27,5,-4
-13,-5,-2,1,-3,-8,-4,-3
-5,5,5,-18,-14,-36,1,6
-3,4,12,21,36,-13,-9,0
-8,-3,2,-37,-55,-1,-5,-6
-12,-9,-31,9,14,-17,-17,-23
-19,-11,-6,-8,-103,22,11,-10
20,-1,2,6,39,-29,-10,-1
-28,-2,1,-7,54,70,11,0
45,2,-7,12,2,66,14,19
-13,8,2,8,-28,-12,-5,-4
-19,-2,7,-7,32,-128,-39,-22
-30,-5,-8,-20,-33,127,44,4
-18,-4,-13,-16,-41,-14,-10,-28
-24,-10,6,1,8,-38,-2,4
71,4,-7,3,-10,-30,0,27
-14,3,-1,5,17,-34,-10,-10
-6,-9,-8,23,85,-49,-16,-8
46,10,8,8,-8,127,57,32
46,6,2,-16,-23,-9,2,31
-106,-8,-4,-14,8,-9,-19,-45
-24,-9,-14,21,0,-16,-9,-27
24,1,-4,-9,-25,-12,-10,9
4,0,1,7,-25,-40,-9,-4
-13,0,-3,0,11,-23,7,-1
16,-5,7,-31,-33,12,-8,3
-8,10,14,-17,127,127,29,9
-63,-17,-20,-13,-125,43,4,-12
9,13,15,64,64,-10,11,21
0,-3,3,-22,-31,-21,-7,-2
34,2,-1,3,61,-77,-10,20
13,-1,-1,36,7,-22,-13,-33
-5,-7,-14,-52,-69,22,4,-13
-90,-17,-4,-18,7,18,1,2
72,-5,-6,4,-41,-25,-7,9
5,4,6,24,58,-32,-6,11
-70,-10,0,-8,38,-38,3,-17
52,15,2,-10,-23,69,1,14
40,23,9,-15,-44,69,18,18
-128,-17,-11,-29,-11,-46,-7,-13
7,-7,3,5,-41,-68,-30,-48
8,-6,-2,-13,-2,72,3,0
14,-2,-5,10,53,49,17,11
5,-7,-9,-4,-14,-14,0,10
-2,-6,-5,-16,14,-34,-13,-2
9,3,6,-15,-10,-110,-9,11
-28,-4,-10,33,45,74,6,-1
4,0,-4,-17,-98,-47,13,22
63,10,2,-14,-8,63,4,0
-38,-8,-4,-1,24,127,-2,-35
-56,-8,-1,2,14,-28,-7,-13
-7,-4,6,40,-4,-69,-3,7
14,-6,7,0,46,-28,-8,6
7,-12,-26,-22,-23,-87,-14,2
8,7,12,-3,-11,41,13,8
19,-5,-17,-3,34,90,15,27
74,5,3,40,-7,-15,-3,4
-128,1,7,-18,-19,-30,-7,-35
11,-7,-1,2,29,-86,-14,-4
-30,-10,-5,21,44,40,2,2
57,15,20,-1,-53,104,35,32
96,-2,2,-23,-40,-37,-19,8
-117,-12,-11,15,27,-16,-14,-56
43,-10,-11,-41,-17,-19,-7,-7
-6,-1,9,38,54,-16,0,4
11,1,7,-3,-39,-7,4,14
11,0,4,10,-20,-9,4,8
11,-1,-5,-15,-4,4,-1,4
24,8,11,15,60,-66,-17,14
-20,1,-5,-8,15,-80,-7,-3
16,-7,0,13,-44,127,41,5
73,13,11,10,-44,-18,5,5
-113,-6,-4,-10,35,-54,-11,-7
-30,-11,-4,-24,10,-23,-8,-9
0,-10,0,35,42,-100,-23,-6
-12,-6,-16,22,103,-65,-18,-4
67,7,-3,-33,-128,127,62,28
17,13,1,-6,74,-33,-16,-19
-59,-5,-8,-18,-18,-38,-9,-31
-46,-3,-5,-19,-20,-24,-8,-13
22,2,9,49,14,-8,-5,4
3,-18,-20,-46,31,-3,4,15
11,-10,-10,-17,39,-28,-13,-8
-7,-3,-10,-6,-22,-112,-30,-1
-10,-5,-8,-25,-15,127,39,6
9,4,2,-8,-41,18,7,0
8,2,1,-7,-40,-17,0,3
-5,-7,-12,11,23,-14,-9,-1
1,3,2,0,7,-2,-4,0
37,9,3,0,15,-96,-26,-15
43,0,-5,-23,1,75,7,11
-74,-5,8,-5,-35,49,9,-1
4,2,-2,-21,32,38,-6,4
2,-6,-1,14,-9,-27,-9,-18
51,-17,-18,-2,-6,-31,-23,-39
-53,7,9,6,-5,26,14,17
-14,-10,-6,7,12,-81,-13,-16
29,6,-2,-13,25,103,20,24
26,16,13,-34,-32,-34,-6,9
19,-5,-11,52,-7,45,11,0
-22,-9,-8,54,72,28,1,-2
27,1,9,-2,2,-10,0,10
14,8,-11,-24,-6,-40,-8,0
-10,-1,-15,3,38,33,-11,-7
-33,3,-6,7,-23,14,11,1
26,-8,0,-13,8,-46,-15,-2
-3,-2,15,37,-15,-120,-22,-1
6,-2,-5,-12,19,127,49,13
0,-4,-6,-20,-22,17,-9,0
-1,-1,-5,-9,-68,-74,-10,-1
3,0,4,0,127,-10,-2,0
25,2,6,-2,-40,8,4,7
-36,-3,-3,-26,-27,-51,-14,-25
-15,2,5,53,29,-68,-11,-2
60,-3,-16,9,-40,83,15,7
-41,-7,-5,-4,18,-70,-17,-8
1,-3,11,-3,12,127,27,4
55,2,5,11,39,26,1,19
-9,13,-6,-49,-52,17,15,3
-4,-21,-12,28,2,-19,-18,-26
-50,6,1,6,-6,12,-2,-23
5,6,4,-13,-12,-25,-13,3
27,-5,-2,10,21,-27,-13,-11
-1,-13,-9,-14,33,22,-3,-1
37,6,4,1,-36,-34,2,25
21,12,1,-3,42,-70,-14,-4
-43,-7,-11,-21,-12,127,20,-2
-15,-8,4,26,-34,-69,-10,-2
14,-1,8,14,-10,-23,-7,-5
39,0,4,-14,-25,38,11,9
-68,-10,-11,-26,2,-12,-7,-16
-5,-6,-10,23,-14,-24,-10,-14
8,3,14,20,35,-13,-4,1
7,1,4,-1,4,-29,-9,5
6,-5,-1,-14,7,-58,1,3
28,13,14,24,-54,87,21,9
75,1,16,33,12,-29,-4,37
-128,-2,-8,-22,36,61,25,-16
-71,-27,-12,-14,6,-11,-22,-65
-55,-9,5,-1,-73,-29,-19,-21
15,-2,-3,-29,1,-32,-10,0
9,2,2,-3,30,-13,5,8
37,2,13,3,20,-29,-5,4
15,-1,-14,32,6,-2,5,7
2,-4,5,-12,-5,-17,-16,-1
16,3,-21,-36,-82,87,42,15
-47,3,14,46,72,112,15,-1
38,9,2,-23,26,26,-3,3
-37,-19,-14,-66,-80,-71,-28,-23
9,3,-2,23,57,-45,-9,-10
20,19,7,-5,-37,42,17,9
3,7,7,-1,15,5,-2,-1
-5,-5,-8,-14,-14,-78,-3,-5
20,0,11,19,0,50,3,14
-26,-4,-5,11,61,-10,0,2
-54,-11,0,35,60,-8,3,-15
48,4,-1,-12,-128,-11,-18,13
71,6,6,-4,20,0,-7,8
41,3,-13,-19,-4,-15,-8,-19
-128,-30,-7,-29,7,-9,-2,-26
0,-2,3,2,-14,-8,2,1
14,-1,-14,-3,1,-6,1,11
18,-5,2,2,-20,-28,-5,4
19,-4,-1,-20,17,31,-6,14
17,16,-1,36,29,1,18,17
-8,4,3,-1,38,-59,-18,-13
-6,-2,-12,13,21,127,22,-3
-10,-8,-6,8,-16,-128,-28,-12
47,3,3,-5,-17,112,14,24
0,4,-11,-37,-36,23,-3,9
-73,-10,-4,-19,25,-12,-14,-39
-3,-5,6,1,-15,-50,-18,-14
-3,-5,-10,-21,71,-8,-6,2
-13,-5,-7,-11,-72,1,-2,4
12,10,9,20,58,-62,-1,8
22,4,2,0,1,10,-13,0
78,9,6,25,18,84,25,4
-47,-9,0,-60,-1,17,11,20
-35,-5,-6,34,-21,-14,-10,-2
65,-2,-3,5,3,3,-9,-19
31,-3,-3,-13,6,-11,-9,2
-18,-1,-2,-1,0,-16,-10,-3
28,1,2,-5,-15,-4,0,8
-4,7,5,2,9,4,7,12
14,-4,-4,-2,15,-21,-4,2
27,-1,-7,-2,-11,8,3,2
-37,2,-2,-42,22,1,-6,4
69,9,7,26,-40,23,19,46
-69,-1,-5,-32,6,-85,-10,-17
-14,-15,-18,-6,-10,-4,-19,-37
-3,-4,2,5,11,50,-2,2
2,1,9,-13,-27,-30,-9,-20
5,5,-1,19,24,-41,-8,-6
-13,-5,-1,1,-73,1,13,16
47,-3,-4,-14,-22,-42,2,17
19,0,-12,-9,16,-128,-32,9
2,-7,4,35,28,127,38,-5
-42,5,12,15,-5,-64,-15,-9
51,7,-4,-26,-10,-25,-5,3
-12,3,7,-13,0,-26,2,-5
-20,-9,4,34,-23,-34,1,-3
10,-4,-5,-14,6,-8,-7,-3
7,-1,14,14,6,7,-4,-4
49,6,-15,4,33,1,1,4
-51,-9,-9,30,-28,4,-1,-3
30,-1,10,-38,18,-20,-7,0
10,-4,-10,-17,24,94,20,0
-17,4,1,11,-7,16,-3,-4
19,0,4,-10,-56,-9,6,-8
-29,1,0,34,-7,-6,-6,21
-29,-10,-6,-1,41,-7,-2,-4
-22,-12,1,-20,-28,-27,-15,-29
36,-5,6,10,15,17,-6,-3
-13,-7,-25,-32,-6,8,1,-2
-22,11,0,-3,2,-27,-3,5
27,0,-2,-10,-1,-20,-12,9
8,1,5,18,51,51,13,1
29,0,-1,2,-16,-41,-8,3
-87,-9,7,-25,-17,18,8,-1
17,1,-2,4,15,60,7,1
16,-1,8,29,-1,-86,-10,-7
-66,-8,-19,6,23,127,19,1
8,2,1,-47,-31,-59,-7,6
52,2,-5,-28,-10,-50,-18,4
-56,3,10,48,76,127,48,-15
-12,2,-14,42,39,-31,-18,-7
-72,-9,18,-21,-88,-7,-7,-9
-2,-6,-7,11,56,-79,-14,0
13,0,-6,-2,19,-35,-8,3
25,1,-9,-17,-87,20,5,20
-6,-4,-5,-15,-12,15,5,2
55,10,3,0,28,-13,-2,-10
-46,3,3,-11,-55,-22,-12,-14
-57,-18,4,11,13,-7,-1,-21
69,2,0,5,-7,-27,-2,1
-52,-11,-6,12,50,1,-4,7
5,0,-10,-21,-70,-12,7,4
11,5,6,-22,-37,-21,-5,14
3,3,3,18,34,48,13,2
26,-1,-2,-4,4,-9,-14,-11
-33,-4,-11,-12,-32,-14,4,-11
12,1,-1,0,-24,-26,-9,-8
34,2,-6,1,-3,-53,-10,2
-38,-4,-6,-27,12,73,1,3
-6,0,4,21,36,-52,1,0
-15,-2,-2,-8,50,-9,-7,0
22,4,1,11,21,8,2,10
1,-10,-5,-16,-60,-28,-10,-6
1,-5,-4,-3,30,69,14,-3
1,1,3,-8,-14,-40,-7,0
-1,-1,-1,2,-27,-4,-3,0
-5,-5,-7,-20,76,-88,-26,-7
-3,-2,-1,-2,-66,101,22,3
3,3,-2,-20,-12,43,13,4
0,-2,-9,-6,-35,-25,-7,-3
28,-1,12,9,20,-37,-5,15
-75,-14,-2,19,23,12,-3,-27
14,6,6,59,38,48,26,15
-1,11,8,-40,-13,-67,-9,20
12,-7,-6,2,-8,5,-17,-33
-25,0,-13,-12,-26,54,10,-6
-4,-16,-16,-36,-75,1,-13,-10
-35,-7,3,12,49,-23,-5,-6
15,3,0,-7,5,-40,-1,5
23,-2,-4,18,1,31,5,3
92,21,8,7,-7,-51,6,44
-60,-12,11,34,17,-16,-5,-25
-35,-14,-6,-24,13,127,20,-29
60,9,0,-17,-27,-68,-21,15
4,2,-2,10,4,-112,-33,-29
7,-7,-7,31,6,-22,-2,-4
7,-2,-7,-43,-61,127,48,13
2,1,7,-3,-15,-66,-8,10
-8,-4,1,-19,-16,-83,-16,-4
-4,1,-6,-23,31,16,11,4
-12,-8,4,41,12,-60,-15,-4
6,-2,-15,-20,0,-85,-27,3
-17,-2,-7,14,-21,125,32,-7
-3,9,-2,6,-36,80,23,-3
-8,-1,-4,-6,-13,-51,-13,-4
35,2,-8,-19,40,-40,-11,6
-12,1,5,3,-1,-5,8,2
-52,-13,6,7,47,15,-1,-5
72,5,0,0,-25,-8,-6,-14
-53,-5,-13,-14,-19,-12,-4,0
16,-7,-3,-8,-10,-3,-1,-6
17,0,2,-1,22,9,-5,-19
32,6,5,-11,-32,15,-12,-4
12,4,-1,3,0,-24,4,4
0,-2,-9,-32,30,37,3,-1
3,0,4,53,51,-83,-3,4
57,6,-4,-4,3,127,47,40
-47,-2,-5,-4,-23,-17,-16,-12
-48,-18,-9,-10,-11,-37,-17,-40
-4,4,6,-23,19,-61,-1,-6
5,15,5,18,-1,74,14,17
8,-2,-12,-24,0,-20,-8,4
50,7,18,14,-14,5,5,11
-12,-2,-7,20,-34,-68,-4,8
-20,-14,1,-6,38,84,10,-3
49,10,1,-9,14,37,-2,-6
19,-12,5,-3,-57,-7,4,-5
14,8,5,-32,30,-95,-14,-6
-26,7,1,43,72,50,-1,0
14,-2,21,15,-128,22,15,5
9,4,-5,2,54,27,-8,-7
34,-2,-9,-17,-44,-39,-14,7
61,4,15,-5,-28,-68,-17,33
-36,-7,1,0,8,50,6,-25
-2,5,-3,27,-36,-51,-5,-16
-2,-3,1,10,53,60,4,-10
-6,-5,-14,-19,-17,-39,-7,-2
7,-6,-7,-2,6,-90,-14,-4
21,-6,-8,-15,32,45,3,9
23,2,8,10,-28,35,18,9
-84,-4,-15,-54,-20,12,2,2
39,5,3,12,-19,-30,-18,-9
-5,-4,-5,5,17,-10,-12,-18
33,-2,-5,-7,12,-24,-5,10
44,12,2,12,-1,23,6,15
15,10,14,16,41,1,11,10
-128,-38,-10,18,-21,4,-21,-34
37,-7,-10,-25,-38,-28,-4,-2
41,3,-3,-10,-3,-15,1,18
-11,-1,-2,-2,-16,22,-1,-31
37,1,4,9,26,6,0,11
-17,0,9,28,-2,-18,-10,-1
-5,-1,-5,-31,-7,-109,-10,-8
-5,7,1,59,46,61,-5,3
-7,3,5,-13,-63,10,7,6
-10,-8,0,-6,5,-93,-14,2
1,8,6,-12,-39,-14,7,13
2,-11,0,-9,-5,-19,-3,-4
-18,-4,2,15,36,-17,-13,-8
-10,-7,-39,33,22,-1,-2,-10
-9,8,8,-18,-2,9,-4,-21
-1,1,10,-16,2,36,5,-5
5,1,6,-28,-15,-10,1,9
-1,0,0,11,60,-46,-4,2
-5,-7,-11,-1,-5,-34,-4,-3
-4,-4,-12,-5,-10,34,-1,6
23,6,6,-40,-104,-9,13,15
52,5,4,49,8,23,-6,5
-60,-8,-10,-4,22,-12,-10,-18
-12,-2,1,7,14,-33,-9,0
-32,-4,-3,-13,-10,11,-3,-1
38,-17,-6,-5,-4,-12,-6,-1
44,11,3,-2,14,1,6,10
14,4,7,9,2,-8,8,-4
-74,-3,-17,-18,-12,-41,-21,-46
23,-4,-12,-8,8,46,5,-4
15,2,-2,-13,16,-73,-13,10
7,-11,-3,22,-9,79,17,3
5,4,9,5,-55,34,12,-3
2,-2,-5,33,23,-56,-13,0
-5,-6,-6,-32,-17,24,-8,-9
-1,-8,-7,-15,-6,-47,-14,2
-4,0,3,-12,28,-6,-6,-6
1,9,7,18,-22,-4,4,-4
15,7,7,24,65,37,8,15
52,1,6,-42,-65,11,1,17
-6,-6,3,23,10,-24,-9,-3
-7,8,-6,7,-2,-9,-1,-8
-101,-26,-6,-31,26,-73,-11,-22
44,5,-4,81,-70,23,18,7
2,17,19,-4,-25,20,8,4
7,-13,-37,-35,-2,105,6,0
6,-2,-4,-8,26,-20,-10,-3
-2,-4,-4,14,-17,-90,-20,-1
-6,-2,-1,-3,64,79,5,-2
3,1,0,-2,-4,-30,7,2
5,-2,2,-25,-75,-42,-9,1
-3,1,10,64,6,-14,5,19
-1,0,-2,-51,-8,27,2,0
-11,-10,-12,-24,40,2,-16,-37
8,-11,-9,0,-27,7,-6,26
-5,5,1,3,-16,-51,-10,-11
-9,-6,-10,-11,0,-23,-19,-52
-78,-2,3,-26,-2,52,12,-17
-18,-2,2,5,5,-6,8,12
31,3,1,12,23,-1,11,30
31,7,-2,-7,24,-18,-12,2
-74,-1,-7,-11,-25,0,-16,-37
17,-10,-3,-11,-93,-64,-17,-12
9,-2,-3,16,84,65,10,9
0,-6,2,40,6,-64,-4,3
2,-2,1,-20,25,62,3,9
-2,-3,-5,-24,-20,21,14,5
-2,-3,-3,18,16,-65,-15,-4
0,3,0,-2,-36,-5,-7,0
1,-1,-10,-41,-5,50,19,0
-1,-5,-13,45,18,12,-13,-3
33,6,3,-1,-110,37,18,16
-22,-6,15,35,43,-23,-1,-3
-68,-13,-8,-14,48,-5,-10,-10
8,-11,-24,-26,38,-115,-41,-15
-17,0,2,-16,-14,127,34,-12
1,8,15,31,-32,-56,-11,-5
15,5,0,4,49,-32,-6,6
-1,-5,-4,-13,2,-42,-5,2
59,-6,-7,3,-13,19,16,27
56,14,9,-25,-18,5,5,6
-128,-24,-28,-17,20,-17,-29,-74
40,2,8,-10,-15,6,0,-3
23,1,-1,9,16,-83,-13,7
0,-1,-3,-11,-7,127,35,9
16,18,11,-2,-16,10,12,11
16,-7,-11,-7,-3,-10,-2,3
2,-9,-9,-12,12,-48,-17,-7
-9,3,7,35,-13,8,-4,0
-16,-2,-7,-12,31,27,9,3
-2,1,2,2,-35,-6,-1,3
-7,0,6,-16,-24,-7,-11,-12
-7,-15,-22,-31,-51,-57,-19,-9
-4,-3,-5,10,44,-18,4,-1
-12,-5,3,18,72,-27,4,-5
2,0,-1,8,-30,14,-1,6
31,3,-4,-9,-5,-60,-12,1
-4,4,4,-8,-28,-75,-12,-1
-61,0,-5,-31,-93,58,22,1
41,-9,-1,-6,1,109,13,15
7,9,10,57,28,3,2,0
-70,-8,9,-62,14,-46,-10,1
-8,-12,-19,25,0,-55,-24,-20
50,2,-4,-28,19,-76,-27,-5
-78,-6,-7,-25,-28,127,43,-1
-2,-5,-2,4,-12,-12,0,8
5,-4,-3,1,-11,-54,-5,-1
-32,2,-3,-10,20,49,12,10
12,5,16,41,8,-30,-5,-2
15,6,4,-7,4,-10,-10,-13
10,-4,-4,-5,0,-13,-9,-3
0,-1,-2,8,12,-18,-4,-3
-7,-14,-27,21,-14,-58,-8,-2
-2,-3,-5,-7,11,127,22,0
1,4,3,-37,-10,0,0,5
-1,-6,12,1,16,-23,-10,-2
-4,-1,-6,0,-10,-63,0,3
-7,0,-11,7,3,-22,-1,-6
11,10,9,-16,-128,30,25,10
6,-4,0,-7,-33,-43,-6,-3
29,-16,-15,-11,38,-33,-19,-10
-18,5,14,35,9,17,0,5
-25,13,6,-39,24,25,12,-2
-59,-23,-25,-25,-51,-24,-11,-26
26,-5,5,0,-2,-21,0,8
13,-1,0,10,47,42,6,12
23,3,-1,24,41,38,9,9
33,-3,-24,-14,-6,-38,-3,-6
5,7,6,14,-18,-35,-6,-8
26,7,3,-9,-27,-16,-1,14
38,2,2,-10,13,24,-5,2
-50,-3,3,-15,-40,-21,-4,-19
-77,0,12,46,95,-24,-15,3
24,-6,-3,-7,-2,45,4,8
45,3,-14,-26,-64,48,21,18
-47,-11,-12,-63,-56,-18,-14,-25
-4,-8,-1,13,35,-31,-10,-7
15,3,9,14,51,17,7,11
6,1,-7,5,4,-17,1,7
6,2,-7,-41,-1,-65,-15,-3
7,12,3,10,-27,24,-18,-2
7,-8,-24,-31,-68,21,14,2
-14,-9,0,-4,37,-19,3,-2
27,8,11,15,-40,-16,5,12
-55,-1,1,-17,-45,-9,-9,-6
-67,-19,-2,10,23,-59,-20,-12
-3,2,2,29,-23,63,18,4
19,-1,1,3,16,-90,-19,-15
9,3,-2,-44,-78,70,5,3
5,0,2,15,68,-68,-3,6
14,-11,-16,0,103,81,-6,-5
-14,-5,-11,-16,-59,-22,-7,-6
17,14,14,-2,-20,-18,-1,6
-59,-13,-7,-14,29,-17,-3,2
2,-3,-2,12,-6,-1,-2,-1
54,7,11,42,24,-56,-11,12
-74,-7,-40,-100,-21,127,32,-3
38,2,5,26,-1,-14,-2,-8
-14,-4,1,-6,27,-2,-1,-6
-41,-7,2,-15,-14,-19,-10,-3
48,-6,-1,20,12,-19,-8,14
-8,-1,-4,-4,5,15,4,-23
-39,-2,-5,-14,-14,6,-1,-23
-10,1,-1,-5,18,-6,0,9
14,-11,3,9,34,-83,-13,0
-9,0,6,19,1,-12,-5,12
15,6,-7,-7,26,115,14,13
0,5,-14,-33,-78,-54,-13,-35
-44,-1,1,16,-49,-22,-10,-14
-1,-4,-6,28,14,-40,-11,-9
0,-5,-11,-4,21,-20,-5,4
-5,-3,9,7,4,-31,-6,0
-6,-8,-5,14,12,-55,-4,0
0,-1,-6,-14,32,-11,3,3
33,18,18,-14,-46,19,9,19
-31,-8,3,20,103,81,1,-15
20,-12,-12,-3,-128,8,7,-1
19,-3,-4,25,-6,-32,-9,1
-78,0,-1,-3,24,-29,-6,-13
12,2,3,3,-5,-10,-2,3
21,-4,-2,-12,-19,-65,-18,-9
10,-2,-10,-4,-47,35,-9,-14
-30,-1,-4,-30,-9,-16,5,-9
-11,-7,1,-27,32,28,9,16
-29,-4,4,10,-8,-13,-19,3
1,0,9,22,58,-3,-5,-9
3,1,-4,27,-26,-5,3,-1
-21,-5,-3,-1,4,14,4,-9
1,2,-2,10,-10,-33,1,5
8,-3,-2,-11,-37,16,4,4
14,-2,2,-6,-1,17,-2,5
3,-1,4,-4,9,-47,-15,-7
-10,2,-1,10,34,8,-1,-11
-8,4,-5,1,2,102,13,1
1,-2,1,1,-33,-24,3,6
18,-3,-11,-25,-38,26,-2,2
7,6,2,-7,20,-50,-23,-13
-49,-10,-2,28,-24,-77,-12,-13
10,-10,-10,-13,-28,75,19,10
19,-8,-20,4,43,-10,-4,8
1,5,4,13,-8,-54,-7,9
-48,3,-6,-4,-19,28,6,-12
71,10,8,-14,24,-29,-6,6
-111,-20,-13,14,-15,-19,-8,-27
23,-4,-3,-7,-29,-21,-11,5
22,0,-6,-10,-5,-13,-12,-9
18,0,16,10,9,9,14,18
0,0,-7,-3,4,2,8,9
4,10,-4,-7,95,-128,-30,-2
-15,-2,7,62,31,127,25,1
-39,1,4,13,-5,100,6,-17
-6,-10,-5,-15,-63,24,2,-18
7,-2,-5,-19,9,-42,-6,6
21,-8,0,-8,2,-41,-20,-17
7,2,7,9,6,-31,-8,7
2,-3,-1,6,9,-11,-4,4
4,1,0,-5,-18,-4,6,11
-9,-4,2,4,45,-98,-4,2
2,-3,3,45,112,127,12,-14
21,3,-10,-27,-22,127,10,4
-38,-13,-11,-23,-39,-21,-5,-11
8,-2,-19,-33,-10,-32,-2,-6
6,0,7,30,6,-17,2,4
8,6,7,16,19,-9,0,4
8,3,0,-5,-9,0,5,14
41,1,0,-8,24,-91,-23,4
49,4,5,24,4,6,-7,-2
-106,-5,15,-33,-69,51,28,-12
-27,-4,-15,6,13,19,3,-5
29,0,8,9,0,-23,-13,1
32,-2,-19,4,34,-22,-6,2
-7,-6,-15,-13,-3,-15,-2,-4
-26,-4,3,-26,-11,-10,0,-1
20,-2,-3,25,2,3,-1,4
37,-2,9,49,-24,-50,-8,-3
-38,-3,1,-59,11,-53,-8,-8
-17,-6,7,12,-63,68,8,-10
10,-1,-24,0,-52,-31,-6,-1
21,7,3,0,24,25,1,8
-18,-9,-5,1,8,-28,-10,-3
-5,-11,-2,-7,-2,-21,-15,-15
5,-4,1,-2,-6,-11,5,12
-5,2,1,9,21,1,2,5
-1,2,-1,-9,8,-7,-13,-16
-3,-11,-4,-10,-28,-128,-39,-24
-7,-3,1,-4,-24,110,15,-2
30,0,-2,5,18,68,24,14
9,-4,-5,-17,45,-5,0,-2
-75,-8,-2,7,14,-26,-5,0
50,-1,3,12,-33,-11,10,29
-127,-6,1,-4,-10,-38,-5,-4
-2,1,0,-7,49,-100,-42,-36
20,-7,-22,-19,-29,127,34,-3
3,-7,-2,-14,-75,-52,-6,5
-40,-10,-1,17,-1,-11,-4,12
24,10,20,16,42,-114,-14,-1
-19,-6,-28,-12,6,84,0,-19
11,-3,-3,-32,-44,-16,-11,-2
6,-9,-1,-8,-20,-17,-8,4
5,4,4,-6,-9,-24,-1,5
0,5,6,-9,8,-14,3,8
2,-3,0,8,11,-16,-1,7
-5,0,1,16,18,-5,2,0
18,-5,-9,-9,-51,-5,-5,2
-12,-15,4,-5,-1,-8,-9,-5
27,15,9,37,21,-32,-4,-5
18,19,8,-25,27,30,2,16
10,-5,-17,30,0,-61,6,28
34,10,1,-13,-17,53,6,-41
-128,-24,-9,-26,-51,34,-11,-21
-12,-7,4,3,-25,-7,-17,-23
41,-6,-5,-1,40,-21,-6,1
24,-1,1,5,-23,-21,-5,8
11,-7,-12,-17,50,-44,-12,0
-2,-3,-1,18,63,14,-5,3
7,9,8,13,-83,87,41,15
-11,-4,-22,-30,-41,-108,-9,-2
-4,-6,9,-6,5,112,4,6
-2,4,-3,-25,-16,-11,0,2
-14,-1,2,28,11,-19,-17,-25
9,5,-2,-6,33,-34,-9,-2
-36,-5,-3,8,43,-11,-4,1
-1,7,6,-5,-105,-42,10,-2
20,0,-3,10,21,-1,9,5
-69,-8,5,-10,24,37,8,14
14,-1,-7,-13,-13,-21,-13,-7
-3,-4,0,11,7,-94,-27,-33
-2,-7,-5,-14,17,101,9,-3
24,4,-12,-26,-100,42,23,23
-15,-6,-4,-5,20,5,-5,-5
1,6,8,-3,13,-23,-4,-11
-3,3,3,14,5,-29,-3,-1
-3,-10,-7,-8,-3,-33,-4,-4
44,4,10,11,25,-10,1,19
15,-7,-24,-57,-2,87,16,9
-125,-16,-14,8,-43,-77,-27,-22
10,0,-3,-19,-15,127,37,-11
28,-5,9,14,27,4,-5,0
15,1,7,-12,-19,-16,-5,1
-36,8,-3,-10,-12,-8,-5,-10
5,2,6,-2,32,-2,0,5
5,-2,-9,23,-10,-99,-13,-2
5,0,7,-4,-3,-58,-9,9
28,-2,-5,7,-4,120,19,-1
7,0,1,-17,-94,-66,-12,-2
-32,-2,-1,-17,-48,-40,-15,-15
15,-18,-10,19,43,-17,-13,-12
20,-1,0,-7,17,-53,-8,0
14,8,9,41,77,-56,-5,11
1,6,-8,-18,-49,127,59,16
9,4,3,-20,-33,41,3,-6
-7,-6,-10,55,8,-24,-20,-16
-6,-5,-6,-45,-5,-51,-11,-1
-4,0,4,-15,-13,-3,-6,-1
16,-1,6,30,75,32,8,3
54,13,7,21,52,17,12,26
-48,3,-7,-18,-38,5,2,19
-62,-6,-3,-1,-16,-71,-16,-45
-21,0,0,0,81,42,-3,1
57,-1,6,5,-128,-25,10,5
-8,-2,0,-12,6,-7,-2,-5
-59,4,-8,-11,-36,41,1,-4
-55,-5,1,1,-2,-19,-7,-8
-4,-14,-5,35,50,-9,-6,0
15,3,-3,-9,15,1,5,8
15,9,9,-12,-5,-4,4,10
18,7,-10,-1,-11,-42,3,11
26,1,-2,-3,-1,-42,-24,-10
-33,-22,-8,-10,37,-43,-32,-16
-22,3,-11,36,-44,127,65,18
-8,4,1,5,1,-14,-14,-29
28,-6,6,-15,-54,-56,-21,-8
21,0,-6,6,20,-39,-9,-1
-71,-3,2,8,55,-6,-7,-12
-44,-6,7,12,10,-2,1,0
2,0,-5,-7,-1,2,1,1
-6,5,-5,14,5,7,2,-4
40,5,1,-33,-16,1,-4,7
33,4,-4,5,-9,-120,-29,8
-85,-19,-20,-12,14,127,23,-12
30,-6,-4,27,-34,-73,-22,-2
-6,6,1,-25,-82,18,8,-8
-18,-3,-8,-13,52,60,0,-9
-3,-3,8,12,23,-14,5,-2
-2,-4,8,8,-8,-27,-6,2
6,5,-7,17,-17,-24,-3,-2
-7,-4,-1,-20,-17,-13,-3,-3
0,2,8,-7,-11,-15,-6,2
27,2,-7,-5,18,-93,-14,6
45,-2,14,31,-37,87,12,18
21,-2,-11,-38,-20,-4,-5,-3
-128,-19,-3,28,21,19,-7,-58
67,1,-3,4,-6,-13,-11,-6
-63,-1,7,3,36,-9,-4,16
15,-2,3,-2,-9,3,11,2
13,1,-4,-12,-29,-8,-2,-1
18,-2,-19,-7,-2,-4,-4,4
7,0,2,2,10,-2,1,5
23,-3,-5,-23,4,-25,-1,3
9,10,10,38,52,-128,-25,-4
-74,-17,-7,10,-12,61,7,-12
13,-1,2,-16,11,102,50,24
-25,2,-23,-10,-38,-74,-13,-1
3,-1,7,-16,-2,-59,-23,-39
0,0,5,16,-18,-35,-11,3
21,-1,-11,-24,16,-7,-1,7
-68,-7,0,1,24,3,-3,-7
-12,-10,-10,-2,-22,0,-5,-7
-7,-2,-4,-3,-5,11,-1,0
33,7,8,6,-13,-23,-7,8
6,1,-1,-4,-9,-7,-6,5
7,2,15,13,38,56,7,6
-2,-2,0,14,15,1,0,-3
1,-8,-13,-29,-22,6,-5,-9
2,-1,0,20,19,25,-4,-1
-5,-3,-4,16,-16,-36,-10,-2
8,0,-3,-10,-1,16,1,11
-20,-3,5,-6,-10,-6,-1,-6
-4,-2,1,-1,-13,-1,-2,-8
29,-1,-2,6,-4,-5,-5,6
36,-1,-2,4,34,-103,-12,12
-94,-1,2,-10,36,94,11,8
60,13,8,14,-74,-55,9,21
-21,-10,-20,5,-64,-12,-23,-53
-29,-21,2,-45,3,-25,-20,-35
6,5,12,-5,35,0,-2,4
45,6,-2,-5,-7,-51,-2,17
9,5,5,-9,-2,22,3,5
-29,-5,10,18,4,6,3,5
7,-14,-18,-36,-7,-46,-13,-1
-4,1,3,56,118,-104,-40,-7
2,3,-5,-32,-51,127,110,14
55,15,-2,-1,-76,-79,0,15
4,-6,3,44,53,-63,-12,-8
-58,-23,-3,0,16,-40,-8,-3
23,2,2,-4,-2,-17,-7,13
0,5,5,-17,-2,-2,0,-22
12,-7,-18,-9,-11,5,-9,-19
-57,-4,0,-1,-5,-13,-8,-7
9,1,1,-7,-21,10,-2,3
4,1,-5,-5,42,51,5,5
49,-1,-5,-8,-47,-51,0,16
44,0,-2,3,42,127,29,36
-128,-11,-3,-7,-12,-30,-1,-25
10,-4,-7,-12,-19,34,-13,-31
4,-9,-9,-3,-6,-21,-22,-17
5,4,4,23,14,-19,-2,1
8,3,-4,-20,-34,-50,-9,7
2,1,5,27,-7,-2,-6,5
24,2,-11,-41,-31,32,22,12
-3,4,12,4,-10,-18,0,6
-104,-23,-11,0,27,-18,4,-9
28,-4,-2,2,17,-24,-8,-2
32,22,9,2,77,-124,-18,18
-7,-6,-5,-4,-58,127,19,3
-5,-7,-5,13,-24,-39,-6,-10
-13,-12,1,9,2,-44,-22,-27
2,2,-5,-1,33,-19,-2,-2
10,-1,1,-6,20,-40,-2,5
-26,4,7,-13,-39,6,-1,4
-3,-2,4,14,42,-14,-11,0
0,-3,12,94,28,-46,-2,-3
33,-3,-13,-71,-6,127,24,12
-68,-4,2,-17,-54,-40,-8,-4
5,4,6,29,20,65,18,1
0,2,-2,-16,-11,-3,-1,-3
1,-4,-7,-6,3,-26,-11,-4
19,3,11,41,18,-57,-5,-2
-35,-8,-21,-34,32,45,1,-6
21,-9,-6,-37,-128,-3,8,-2
33,8,4,-2,-5,-3,5,33
-84,3,2,4,91,-44,-6,-13
16,-12,1,21,13,62,-11,-24
15,-5,-2,32,-3,-32,-5,7
-88,-11,-17,-25,2,-16,-14,-46
-18,1,-10,-12,-14,-16,2,-3
17,7,0,10,44,-30,-2,3
87,2,16,28,-48,52,21,10
-128,-25,-11,-32,4,82,10,-7
35,-2,0,-10,-11,4,8,21
15,1,-3,59,0,-42,-8,2
2,-1,3,36,27,17,-7,-15
5,-1,-3,-66,1,-2,-4,-2
-2,-5,-3,0,18,19,-1,0
2,-5,-3,-10,-34,-45,-5,8
-7,-2,-2,15,35,-68,-22,1
-9,-8,-9,-7,12,127,45,2
0,-2,10,-8,-70,-88,-2,0
4,5,-2,24,14,105,18,11
-4,10,10,-16,-17,-12,-7,-2
-10,-8,-18,4,22,1,-6,-8
3,-3,-3,-1,22,14,-4,3
12,-5,1,5,-38,-35,-8,11
12,-7,-9,-8,12,-20,-7,2
-49,-3,2,-13,-3,-6,3,-25
7,6,-4,-10,-20,-7,0,1
-20,-6,-1,5,61,24,3,-3
21,9,9,17,31,14,-1,11
25,-3,-5,-2,20,48,-1,-8
-42,-10,-12,-26,-47,68,15,-9
1,3,-5,-26,-13,-40,-5,23
8,-14,2,37,16,21,-3,-16
-95,-13,-15,-19,-21,-43,-5,-3
70,28,18,-21,-9,-55,5,15
30,8,0,21,43,127,4,6
24,2,-2,-7,10,13,8,11
-31,-10,-12,-11,-44,-31,1,-11
0,-3,-8,4,19,-16,-6,-24
34,5,10,12,16,-6,-9,-12
-34,-9,1,-5,-11,-37,-12,6
62,1,-7,10,-2,-45,2,14
-33,-3,2,-16,-9,50,9,0
7,-1,4,-17,17,-40,-17,-5
39,4,-6,-18,21,87,17,16
6,-4,6,36,-11,-33,-11,0
-10,-4,-3,-3,32,89,10,-11
5,1,-6,-12,-5,-18,-7,-3
28,10,-1,-8,33,-84,-6,6
-34,1,9,42,-39,53,5,-8
-2,-15,-14,-8,-14,10,-4,-8
-6,-2,-6,-43,-31,-23,-3,-4
29,0,3,60,19,-28,-5,0
4,-8,-4,21,57,-3,-1,10
-26,-9,6,-33,-14,-4,-6,-7
25,0,1,-1,5,-31,-13,-17
35,2,-3,-8,-3,84,16,17
-29,14,5,13,-19,42,29,-3
-8,-1,-11,-21,-19,-43,-28,-46
-1,-9,-8,0,-12,-26,-20,3
4,-21,-17,-8,-2,-13,1,5
-65,-4,3,9,40,-79,-13,5
17,0,9,34,23,127,23,6
14,-1,-15,-48,-20,-42,2,13
33,10,21,-4,-86,1,1,18
-5,-6,-16,16,26,-60,-23,-25
8,-4,-4,-2,38,85,0,0
-20,-3,-9,-13,4,73,29,0
18,1,5,14,-2,-43,-16,5
28,5,11,1,2,7,6,-9
-51,-7,-2,3,-5,-37,-10,-14
60,-3,-12,31,36,-16,-8,0
-67,-2,1,-14,34,-9,-7,-1
-42,-5,11,32,91,4,21,3
32,3,-12,-47,-128,127,65,17
70,-1,-5,-50,0,-61,-29,13
-95,-5,-5,-6,42,-34,-7,-8
20,-7,-3,2,2,-30,-3,-6
6,7,4,-1,13,-7,0,-16
61,3,3,-30,-17,-8,-8,4
-88,-11,5,13,-8,-17,7,21
53,5,0,-3,34,24,0,22
-60,-2,-13,21,-73,9,-5,-34
15,-2,-5,-18,-15,29,-9,-15
-14,6,3,2,-33,-12,-7,-7
35,-1,-1,-11,41,1,-1,10
-88,-7,8,2,3,13,6,0
6,7,-2,10,-1,1,-2,0
9,3,-9,-7,0,-4,1,7
0,-11,2,-8,-8,10,-2,0
1,-1,3,3,3,-1,-2,-2
-1,10,3,-2,-11,-7,-1,1
-4,-6,12,5,-4,-123,-24,-10
10,3,5,26,43,48,-11,-7
-29,-4,-36,-25,-128,46,41,8
25,-11,-16,-44,-54,-60,-19,-2
52,12,5,22,11,16,2,7
-67,3,16,45,58,-13,-4,-12
52,-6,6,3,25,-15,-6,-9
32,10,9,44,40,-46,-4,1
-39,-15,-2,2,-35,-30,-21,-26
29,-2,3,-25,-59,1,-1,9
56,1,-7,-15,4,124,10,10
0,-5,-5,9,-6,-20,-2,6
-41,-3,9,6,2,-14,-3,-16
11,-11,-1,-22,42,-19,-2,-2
58,-2,-1,33,27,-39,-13,11
-29,3,-16,-54,-115,46,23,-4
-2,2,-6,-10,-5,-8,-7,-12
38,5,-6,-4,3,2,-2,3
-21,6,5,-5,8,1,0,0
-45,-17,0,3,26,-7,-4,-10
16,-7,-5,6,-52,-56,-7,10
66,8,1,-14,21,10,4,16
-39,-4,1,-12,-1,-1,-8,-8
-31,-11,1,18,58,27,0,-14
13,1,-2,-6,-20,11,-1,1
17,-3,-10,-8,-14,-36,-9,-4
0,-1,6,25,6,18,4,12
37,-1,-13,14,-8,41,9,8
-39,4,5,-23,-3,22,0,0
2,-1,1,9,-23,-6,-3,-10
-28,-1,-8,-4,6,-16,-3,-9
-14,-4,-4,1,4,-17,-3,1
8,-2,12,-1,-5,-34,-7,0
4,2,1,-12,-31,7,-7,-4
-19,-8,-4,11,58,-35,-11,-7
35,-2,5,40,-29,-93,-7,-18
-14,12,-2,-29,-97,106,23,12
4,-2,4,6,34,-24,-9,-1
-7,-9,-22,-1,-13,-34,-15,-13
-6,-4,2,-41,-5,-44,-4,0
0,-9,-2,33,15,17,-3,-5
46,10,11,23,19,1,-11,10
-26,-6,-11,-5,-19,-12,1,-11
12,-8,-19,-26,-9,32,2,6
1,4,9,21,1,19,6,13
-36,-13,-6,-21,3,-9,-7,-27
-25,-2,-10,-12,12,-18,-6,-24
21,4,4,8,3,-16,4,9
32,-1,3,40,-7,21,1,10
21,1,-11,-48,-45,15,6,-6
-10,2,14,15,-12,-3,-4,-7
4,-5,1,7,9,-8,-2,-9
-70,-4,-4,-18,-14,-8,-2,-1
14,-13,-7,6,21,-72,-19,-6
25,-6,0,9,13,66,25,7
-17,10,12,30,13,72,20,14
45,6,-12,-4,-11,18,-14,-4
-94,-9,-3,-14,-7,-11,-11,-13
-8,0,1,-17,3,-31,-7,-6
8,4,-2,7,57,-37,-6,-2
11,3,1,-12,-48,58,8,12
13,-5,6,0,-20,-11,-1,0
7,4,-5,-1,-4,-11,-1,7
55,0,-7,-38,-9,-6,-2,18
-20,-3,-7,0,3,-118,-19,-14
-34,0,-3,12,-11,127,35,-16
-32,-5,-4,-54,23,-16,-5,-22
-20,-5,-8,3,23,-12,-9,-5
102,11,8,3,-54,-19,4,21
-81,-1,8,5,6,-26,-4,-5
-9,3,-6,3,25,-16,-7,-6
15,-4,-7,-12,1,-22,-4,2
-2,-7,0,-31,-8,-67,-17,7
125,2,-16,62,-84,123,34,48
-109,9,11,-30,-55,3,-16,-47
-67,-27,-26,-29,-6,-27,-16,-38
-19,-4,-4,23,59,-6,-3,-9
20,-4,0,-21,25,-13,0,14
8,7,1,-8,14,-10,2,3
11,12,7,26,4,-10,-4,-11
39,1,3,-13,-26,-24,-7,4
24,1,6,4,10,-2,-5,-4
-104,-6,-5,-20,16,-44,-10,-6
45,-1,-2,-18,-23,45,16,16
-14,0,-2,56,-51,-22,-11,-4
-75,-14,7,30,10,12,-7,-28
28,-1,-20,11,58,97,21,11
15,-6,5,-28,-60,-24,-4,10
-8,-5,-8,-11,-11,-14,-2,-2
4,-5,1,6,51,-23,-6,2
0,-6,-12,6,14,-128,-27,-21
-5,1,2,-11,-76,91,16,3
19,2,11,-13,46,105,19,10
60,6,-6,15,15,-11,-2,1
-128,-4,-1,-27,-21,-30,-8,-9
-7,-6,-7,-26,-27,-25,-16,-13
54,-5,-1,31,-13,-15,5,7
-11,4,5,23,12,17,3,12
-24,-3,5,-6,-8,7,8,14
-12,6,10,10,20,-36,-12,-15
-37,-15,-15,-40,-12,-21,-8,-26
15,11,10,39,-57,27,-9,-15
17,-1,-14,-26,37,-11,-10,2
-16,-5,8,21,18,24,17,12
28,1,6,8,14,1,3,11
-51,-3,-2,23,12,-6,-2,-4
2,-3,-7,-24,-31,-11,-9,-7
5,-7,3,14,-5,-22,-2,1
29,7,3,7,33,-22,-2,1
-10,16,14,-6,-80,-70,-3,2
15,-4,6,29,65,40,-4,8
-61,-13,-6,23,-128,17,30,6
-4,-1,-7,0,-3,3,-17,-26
-3,-3,-17,4,13,-15,-6,-15
9,-5,-6,2,35,-83,-15,7
-2,-1,-1,-17,48,90,4,1
11,-5,0,-7,-25,-7,-2,2
3,-2,8,-6,1,-11,-1,3
-25,7,12,-8,-32,-38,-5,-7
13,-8,0,43,9,-17,1,-1
2,-1,-7,-4,-44,-7,-3,-5
24,9,-2,-21,17,-11,-9,3
12,-1,-15,-2,10,-29,-13,-2
-88,-10,1,12,-29,-30,-6,-13
8,-5,-3,12,26,1,5,-8
9,-2,-15,-30,-8,7,5,6
2,-3,4,-16,-10,34,1,-2
-2,-1,6,-22,-2,3,4,-1
30,5,-7,12,-2,29,4,1
7,0,-8,20,-5,16,1,-1
-73,-6,-7,-28,31,-8,-3,-8
47,0,2,-12,-27,-5,2,8
-21,-12,3,3,-11,-54,-13,-16
-75,-3,-22,-60,20,18,-12,-12
-35,-11,-8,-5,-24,37,9,-6
72,3,-13,-20,-41,0,1,13
4,-4,10,2,14,-9,-2,1
-17,-16,8,10,51,-6,-2,-5
52,6,-10,-1,-35,30,2,15
-21,7,-2,-21,-27,-14,7,-2
24,-2,3,-28,-15,-19,-5,-21
-2,0,-7,29,5,-11,-5,-3
-12,-1,-8,0,32,57,-4,-9
46,-2,3,18,49,-36,-9,8
-8,4,8,-1,-31,1,19,19
-21,-8,1,-24,-23,26,-9,-6
-45,-9,-1,12,-40,-70,-1,-5
5,1,-9,-41,25,54,0,0
4,2,-7,7,42,-15,-6,-2
-4,-7,-9,-25,-37,-12,5,0
1,-2,0,7,10,-13,-2,9
19,3,-1,5,-21,-23,-4,-3
-13,-9,-1,1,-11,-51,-19,-23
24,7,10,-11,11,62,14,15
4,-3,-4,8,-18,-33,-10,-10
-59,3,14,27,92,93,12,-10
-17,-6,-13,-22,-55,-19,3,4
25,1,4,5,33,-37,-13,1
-5,-1,2,-3,-13,5,8,1
14,-1,2,3,3,24,2,5
6,-1,3,1,-34,7,2,2
-1,-5,4,0,8,39,5,0
14,7,-7,-40,-6,-32,-4,9
-2,-8,-19,20,33,-10,-6,-7
-19,-6,1,29,-8,-29,-14,-18
-15,-2,11,9,-14,-24,-2,-6
4,-3,0,-55,16,69,16,-9
35,8,3,-5,-21,-13,-2,12
-17,-5,-17,3,-31,-3,-2,-10
32,-4,-5,5,27,-6,-1,-9
18,14,9,-8,22,14,-8,16
-31,-2,-8,-13,-30,19,-4,-6
-101,-15,-8,4,21,-9,1,-1
18,2,13,22,56,-33,2,2
-13,1,-1,-9,51,74,2,0
-30,6,10,3,-91,-85,-4,-15
22,-2,-2,-8,1,60,-3,-22
19,-9,-19,-63,-57,-6,-2,4
-12,-3,0,24,-11,-1,6,6
-1,0,3,32,37,-15,-1,3
0,-2,-6,-9,5,-12,0,8
-1,-3,-1,-10,-2,-30,-9,1
3,3,0,-4,5,15,1,6
-1,1,-13,34,34,-27,-4,-4
-5,-3,8,-10,-31,22,2,-2
-5,-5,-16,-16,-17,12,2,-3
-1,-4,8,4,25,6,-3,-2
18,-7,4,-3,-20,-34,3,13
-9,-4,-13,-18,-16,-14,-3,-5
13,2,2,13,21,-12,-5,-21
-17,0,7,13,9,10,-8,-12
-60,-8,-16,-21,-27,-10,-4,-1
24,3,4,11,-1,-19,1,6
2,0,-6,-19,-10,-1,-7,-3
-12,-8,-14,-16,29,-16,-1,-10
-2,-12,-4,-16,-9,-64,-14,-8
72,9,12,27,-23,15,7,9
-14,6,6,35,21,9,7,31
28,7,7,-35,-59,2,28,-13
-109,-13,-21,-12,-73,-29,-33,-55
7,-10,-8,-10,-5,-23,-10,0
24,-3,-6,-7,17,-28,-5,0
-3,3,2,2,1,-36,-3,5
10,5,6,9,50,51,10,14
28,3,-1,-19,-9,83,22,18
-43,-5,8,-25,-34,-4,-8,-17
-7,-6,-2,-2,-12,-31,-9,-10
1,-4,0,0,52,38,7,6
26,5,5,27,39,-12,-1,7
27,5,1,-2,7,-16,-2,4
-81,-5,7,12,-22,-17,-4,-5
4,-4,-4,-18,-8,27,0,-2
4,0,-5,3,-17,-11,-1,-1
8,1,6,-13,-3,-5,-3,0
8,1,-6,7,-5,-6,-2,0
-2,-3,4,2,14,-40,-10,-5
52,-4,-14,49,36,70,4,12
-43,2,2,-60,-56,-4,26,-6
-34,-1,-4,1,-125,41,8,17
10,-19,-12,11,72,-3,-23,-26
-14,3,-3,-9,-17,-25,-18,-35
-4,3,2,8,17,-24,-5,3
-92,-13,-3,-4,-14,-41,-6,-16
-10,-2,-6,1,26,0,8,18
24,2,1,-8,-20,47,-1,2
11,6,4,-5,-2,2,5,7
4,0,12,17,-25,5,3,1
23,-2,-5,1,80,12,-1,3
3,-6,-21,-11,-27,-31,0,-2
-61,-7,-3,-11,-5,18,0,-10
15,2,-9,-10,12,-9,-8,5
-9,0,4,9,-25,-27,-14,-14
4,-4,0,3,18,7,-5,-2
9,-2,-5,2,0,0,-1,-1
3,-6,-7,-14,-10,-25,-6,-3
5,6,11,12,13,-59,-2,6
-2,-6,4,11,-24,65,13,-9
6,-6,-10,-4,-2,5,0,7
-28,-3,-5,-2,-48,42,13,-7
12,-4,-7,65,7,-33,-15,-15
-6,2,-22,-43,17,-26,-10,-10
11,-2,2,-7,-10,-13,-12,-6
25,2,1,4,12,-15,-5,2
-14,-7,-2,0,0,2,-1,6
11,-8,0,-3,5,-62,0,6
-39,-16,-9,13,9,-23,-11,-10
-12,10,1,-14,30,86,36,25
16,5,-10,-35,-79,55,7,-19
27,-4,-6,-15,1,-12,-23,-24
8,-10,4,2,12,-15,-8,-12
-42,-4,-1,17,34,-4,3,-6
11,2,12,15,-30,-26,-11,7
14,2,4,-13,-5,-4,0,3
-22,-8,-12,17,6,-15,1,-3
69,6,-5,-18,-10,7,-2,29
20,3,1,-9,-7,-128,-8,3
-78,2,15,2,-8,127,43,-14
9,-1,-2,24,20,-18,-7,-14
-5,-15,-33,-2,-45,-49,-10,-10
9,-6,-8,-30,-16,-9,-9,3
5,3,12,17,24,-14,-9,-1
-2,3,17,-5,-12,-34,-13,1
3,1,2,4,23,-1,3,6
1,-3,-2,-26,-8,-5,2,1
-13,-3,-7,19,-15,12,-16,-10
66,11,1,-19,-4,10,15,20
12,0,2,37,33,-17,-3,7
-92,-15,4,-52,-54,17,7,-20
-13,-3,1,-19,-12,2,-14,-23
29,-6,-12,8,17,11,4,-1
22,2,1,-24,32,-1,4,15
30,4,12,32,-46,-21,-4,22
5,0,-20,-47,48,-128,-43,-24
11,7,0,40,-12,127,56,19
-36,-12,-12,-32,-31,-59,-12,-9
-7,-3,6,9,0,40,18,-13
23,4,-6,-26,-36,-50,-21,6
-11,-12,-16,-25,-4,-31,-10,-8
-10,-3,-2,4,48,-5,2,3
-2,0,8,9,-14,-24,0,8
7,-1,-8,18,59,-18,-6,5
-4,-14,-5,-2,-25,12,-2,-8
-24,2,-16,-15,-32,62,5,4
12,-1,1,-10,-17,-21,-4,0
2,0,9,7,-7,-18,-3,-2
3,-3,2,-11,-1,7,-2,-2
2,-1,-4,-7,9,4,1,0
3,-2,-11,-7,-22,-15,0,-1
67,12,6,26,93,-112,-25,7
30,2,-15,-30,-67,127,38,6
-128,-14,-2,-2,-48,-17,2,-14
-33,-9,0,-7,19,-37,-8,-9
-39,-7,1,18,10,-37,-7,-2
4,-3,14,15,18,-9,1,1
27,-5,-2,4,-19,-42,-13,-18
0,-2,-8,-6,47,21,-13,-17
11,-7,-31,-9,-6,10,4,-5
34,-8,1,-13,-22,-15,-3,18
-2,1,1,5,2,-117,-22,-6
1,23,-10,-22,21,85,11,-6
2,12,10,-3,-61,18,23,8
-28,-5,8,33,-26,59,-2,-10
-3,-6,-10,-30,38,-27,-10,0
-5,-12,-6,1,26,-18,-7,0
3,-1,14,-1,10,-12,5,11
-4,7,0,-4,-27,-26,-4,-7
-26,-9,-12,-5,-3,-7,-9,-11
10,0,4,-8,-8,-11,0,-4
2,1,0,6,-8,-10,-1,5
-5,-4,-5,2,35,-30,-4,-4
21,-2,3,-19,-3,70,8,2
41,7,-6,-20,-52,20,6,10
-128,-3,3,52,27,-19,0,9
-51,-19,3,-38,23,-13,-12,-17
18,2,-2,6,17,-2,-5,-18
8,1,-8,-12,-18,-32,-14,-14
9,-4,1,5,-4,-42,-14,-5
17,1,6,0,9,105,31,19
59,10,16,7,10,81,14,24
-86,-2,0,16,-79,-52,1,-10
29,-9,-9,-72,47,35,-6,-9
-13,-4,2,10,28,-23,-8,-11
-4,-6,3,5,27,-22,2,-3
46,10,3,-7,-14,0,0,5
23,20,8,26,1,-1,1,21
-23,-10,5,1,8,-4,-6,2
-27,-5,-10,-11,-14,-38,-9,-25
55,5,3,-10,-7,-30,-3,5
29,2,-5,7,6,59,13,5
-22,-10,-6,4,4,11,-8,-17
33,-5,2,-12,4,2,1,-1
20,-4,-9,-12,-14,-17,-2,3
36,-1,-2,3,10,-14,-4,23
1,-1,-10,-20,-29,-44,-8,-8
-16,3,-1,3,21,35,-2,-29
-1,-6,-9,-8,-1,-6,-4,0
-7,-1,-8,-24,-9,-13,-2,3
2,-3,1,13,-46,-42,-1,3
-29,-2,9,41,39,-2,0,-7
-7,-2,-5,-7,11,26,4,1
1,2,-1,-9,-14,50,12,17
5,2,8,-27,14,-1,-14,4
-2,-1,-26,2,-24,-24,-10,-22
7,3,-7,6,-13,1,-3,-1
-7,-4,22,22,-2,-48,-13,-4
1,-5,-2,-49,39,65,12,1
25,-1,3,38,-15,-40,-5,1
-4,11,11,0,-18,-25,4,-5
-68,-5,-6,17,8,-17,-2,-12
8,-3,5,20,20,18,11,5
27,-2,4,-23,-8,6,2,13
15,3,-6,0,1,4,2,-1
-31,3,-6,9,30,0,-7,16
19,0,-24,-15,4,-9,-1,-12
-28,-12,-6,7,-7,-16,-3,-22
5,2,8,-29,-47,12,6,11
40,-10,-14,22,43,-17,-15,6
-5,5,-5,-11,-62,-18,5,11
-71,1,1,-7,64,-35,-11,-14
-4,0,-12,2,-20,7,-1,-3
27,2,3,9,-52,8,5,9
16,-5,-4,-13,-34,51,7,0
-5,0,7,8,27,-29,-7,1
-13,-3,-1,-8,14,12,-3,-22
-14,-2,-2,1,6,-33,0,0
20,2,5,-12,-27,-40,-5,7
-4,-5,-6,-10,33,50,4,0
-4,1,-7,37,17,0,-1,-1
2,2,-10,-2,1,-35,-4,4
8,-6,5,-4,-5,-32,-7,4
79,7,-2,-24,46,72,15,5
-128,-14,6,19,-7,57,20,-15
-6,-13,-3,-20,16,-86,-25,-15
77,19,13,45,-8,75,37,31
-27,6,6,-23,-59,23,-16,-20
-35,-13,-10,7,27,-26,-18,-27
21,-1,3,4,20,-24,-2,5
21,2,8,12,36,-24,-4,1
-6,-7,-1,-12,-55,-15,-7,-15
16,-3,5,21,-7,-8,-2,1
-31,-21,-7,-2,13,-42,-14,-14
11,7,4,-16,47,8,13,25
36,16,15,-1,-30,67,8,10
-42,-7,4,14,-6,-16,4,1
17,1,-19,16,7,102,17,4
1,2,-17,-32,-3,-22,-9,-9
2,-8,9,2,-9,0,0,0
-1,0,-5,-20,1,-17,-5,-3
-1,-3,-1,25,12,-7,-1,-2
6,-1,2,-31,-62,-52,-9,-2
-11,1,8,27,81,84,18,-1
13,-8,-20,-3,23,-19,-7,0
2,0,-10,-41,-9,18,9,12
12,-1,7,22,-4,-17,-1,2
8,2,-4,-6,-22,9,-9,-11
-29,2,5,-3,9,-10,-9,-24
5,-7,-15,-17,-11,-57,-10,1
40,7,2,-10,4,54,1,8
-64,5,8,35,-21,-53,8,-7
20,-2,7,-23,12,86,9,11
49,0,-6,-14,6,30,-10,-11
-74,-4,-9,6,17,-35,-6,-5
-35,-6,10,3,-3,-29,-7,8
14,1,-3,6,22,-31,-6,5
17,3,-8,-4,38,105,22,11
8,-3,2,6,-22,-19,2,1
1,-5,-2,-7,-39,-49,-7,2
0,-2,-4,2,18,39,3,2
0,8,2,18,-25,-6,-2,-2
-2,-2,5,-39,-12,-33,-11,-8
-1,-6,-12,-20,58,-3,-6,-2
-3,-3,-4,14,-20,37,0,-2
-1,5,5,11,10,-5,7,5
6,-7,-3,15,0,61,5,1
-11,-2,1,4,-54,5,-1,-7
2,2,-9,0,15,-7,-11,-16
-9,-4,-13,-5,14,-20,-10,-17
31,-2,3,18,13,-74,-9,4
-9,0,4,-31,-4,97,19,-1
13,8,-3,37,-30,-34,-2,18
-12,-8,-2,37,94,14,-6,-15
-1,-4,19,-47,0,19,-1,-7
-7,-10,-13,51,-31,4,-6,-2
5,-5,-6,-18,-42,-24,-1,4
14,1,1,-15,16,-9,1,7
17,4,8,5,-27,-9,0,7
2,6,-1,-10,10,14,-2,5
22,-3,-1,8,22,-65,-5,5
9,1,6,-4,25,86,21,-15
-128,-4,4,-13,-61,10,0,-30
28,-1,-5,-12,19,50,6,-4
-14,-11,-10,-34,-6,-16,-6,4
20,-15,-28,-11,-2,-18,-1,1
10,5,15,17,27,-9,-3,4
-4,-11,0,5,-4,-11,-6,-7
-4,0,4,-2,-2,-4,-3,0
-1,15,1,12,17,-1,1,-1
2,2,-1,1,-30,-1,3,9
-4,2,-2,-7,-11,-3,-1,-4
-11,-7,-1,-24,-13,-22,-9,-5
28,1,-2,2,12,37,9,7
16,5,5,34,35,19,2,-2
-28,-3,1,-8,30,82,23,-2
-56,-8,1,-7,-77,-33,-17,-4
-78,-17,-8,-2,0,17,-19,-36
-23,-1,2,0,9,-19,-8,-8
23,2,-20,-54,5,-6,-3,8
15,2,4,22,-14,-20,2,10
5,-9,-22,-62,11,5,-1,4
5,5,2,4,-24,22,10,5
2,-2,-7,16,52,-65,-7,10
3,-2,-2,-6,-49,64,1,-2
-9,-5,-2,-9,-13,-22,-13,-15
28,-4,-6,15,41,0,-1,26
38,7,-9,-8,-51,-11,3,-10
-55,-6,0,-19,-19,-7,-10,-30
13,-8,-7,-14,32,70,8,-1
0,1,-3,-6,9,-30,-9,-9
7,-2,1,-20,-91,-38,0,-6
11,-1,10,19,-1,-6,-6,4
-12,-14,-11,-36,19,-1,7,4
2,1,3,25,-20,-7,2,4
-3,-5,0,14,49,-31,-11,-1
0,7,4,-57,-31,-27,-5,-2
-1,0,-22,-20,35,126,34,3
1,-3,-1,12,-13,-5,-6,-1
-4,-3,4,14,20,-9,-5,-2
-1,-4,-2,0,-2,-18,-3,2
-7,-6,1,-10,-16,-18,-5,-9
-10,-4,6,-19,9,-46,-1,0
8,2,-7,-8,-42,-15,1,0
-10,-1,-5,3,-4,-39,-9,-4
6,-1,4,5,-5,30,2,0
13,-1,-2,-4,40,46,8,-2
-57,-4,-1,-6,-50,-15,-9,-20
41,2,7,-19,-27,-2,1,8
36,-1,0,25,-25,-32,-5,5
-84,-16,-7,61,49,42,-7,-34
21,-11,-15,-28,34,-12,-9,-12
12,3,5,9,2,1,6,7
12,-3,3,-7,-17,-17,-1,6
16,3,0,2,-27,-36,1,10
22,-2,-10,-2,11,-59,-19,3
1,-3,-9,12,46,44,12,-7
-92,-10,-1,-40,-21,86,-5,-22
16,6,9,54,-37,-36,-8,-2
-6,2,-12,-20,32,36,2,6
18,-5,2,-8,36,-25,-6,2
3,-4,6,-16,-80,-30,1,1
3,-7,-17,-6,14,21,-3,2
6,0,0,-3,-5,-6,-7,2
7,2,-1,-29,-6,-10,-1,2
-16,0,2,-48,-13,-23,3,3
0,-3,3,77,18,76,8,-11
-16,-5,-2,23,43,4,-4,1
10,-15,-2,2,25,-31,-7,-17
-23,-6,-11,-21,-65,-42,-10,11
37,15,2,-3,27,60,7,-18
25,6,6,-3,2,-1,1,10
-6,-2,3,-1,5,-6,-3,8
-28,-6,-3,-2,-21,-7,-3,-10
-46,-14,-1,-8,-14,-9,1,-5
8,-5,-4,1,1,-38,-7,1
7,-3,-1,29,46,34,-2,3
7,9,22,-44,-60,46,1,-7
-4,-4,-15,1,-2,10,7,-3
7,-1,-2,-16,-9,-9,-5,2
-3,-4,-4,-6,8,4,-7,-8
-10,6,0,9,39,-10,-1,0
13,-2,11,5,-30,-13,-5,-7
19,-1,3,0,-14,-5,-4,-4
-30,-3,-3,8,-2,-4,-3,-3
8,-5,-2,-24,16,-11,-1,-4
30,0,-4,33,-41,-12,-1,1
-46,-1,1,-2,-3,-51,-8,0
5,-2,-5,-1,54,31,2,-1
7,1,3,-14,-55,15,7,8
4,-1,2,-9,-48,-15,3,-3
1,9,5,9,34,-9,-9,-8
-2,-11,-19,-14,9,-12,-3,1
-2,-4,8,18,-8,-14,-7,1
8,4,6,4,-10,-13,1,7
23,8,-2,-11,40,-41,-13,5
-17,-7,2,52,4,107,9,-15
11,0,5,-24,-46,7,7,1
2,19,7,7,2,-7,-6,-6
-12,-1,5,0,37,-82,-6,3
-12,-6,-16,-49,-21,78,6,-8
1,-2,-4,5,-27,-2,-1,2
10,3,1,1,11,-14,-1,5
22,-4,11,5,20,-28,-4,-2
-13,1,-3,3,-33,-53,-10,-1
-23,0,-7,7,21,80,24,3
-6,-5,13,-2,-37,-48,-11,-15
2,-8,-1,-17,44,60,0,-2
26,2,1,-41,-47,-19,2,8
32,7,0,55,8,-8,-3,16
43,1,2,16,26,-8,1,3
-128,-15,-7,-13,2,-8,-12,-44
25,-5,3,-8,-19,-42,-4,-5
22,2,-5,-4,-31,-73,-20,1
7,-5,-10,-17,4,48,11,0
12,1,6,16,11,78,17,5
7,-2,0,-34,-26,-6,-7,16
4,5,4,56,34,-13,4,8
-6,-5,-9,-2,-21,-36,-9,-7
-24,-4,-2,-4,-11,-25,-20,-32
18,-9,-7,-11,-11,-5,-6,-6
-4,-9,-10,-11,21,9,3,-4
-3,4,15,38,-17,-1,-1,2
48,5,8,33,18,-16,4,15
22,10,-1,-16,30,33,9,8
-120,-13,-11,-21,-20,-13,-4,-37
22,10,-1,-16,30,33,9,8
-120,-13,-11,-21,-20,-13,-4,-37
2,-3,2,27,-35,-12,-1,0
-4,0,1,-1,-9,24,2,2
