Channel_1,Channel_2,Channel_3,Channel_4,Channel_5,Channel_6,Channel_7,Channel_8
73,3,-5,0,5,46,12,2
57,9,10,8,19,-20,-7,13
127,9,-13,-10,26,-39,-5,65
127,41,6,6,11,33,9,0
-128,-12,4,21,-37,57,12,-47
127,-13,54,-10,14,-19,-11,14
-128,-30,-114,-29,-48,-49,-11,-34
-8,6,-6,4,49,15,-4,-4
11,-1,32,2,-57,-32,-2,-9
106,-1,-76,19,-4,23,6,62
73,-2,-15,-23,43,-128,-32,-6
-45,39,14,-21,25,127,28,17
-128,-78,-18,-8,-44,-98,-17,-119
49,-34,-9,22,-16,127,2,-76
-128,-66,-92,13,-12,43,13,-48
125,-1,22,11,7,4,1,2
98,6,90,3,6,-31,0,28
53,0,-20,-14,-7,-85,-18,1
106,59,21,-17,-14,89,10,76
36,9,-52,26,48,15,-4,-30
-96,-25,-38,-15,-7,4,-12,-58
74,-14,7,-23,-5,-49,-4,15
3,-9,-5,-22,1,-53,-5,13
-100,-11,-5,8,-63,32,9,-6
127,6,-14,-6,8,33,6,27
-128,-43,-8,-5,-41,-24,-1,-35
76,11,4,-23,-9,38,7,24
32,19,33,5,17,-6,-1,-24
42,9,-45,-11,13,33,-2,-14
3,-8,-5,-19,-24,-17,-8,1
71,12,3,-19,-41,-20,-1,14
-128,-11,10,-20,-14,-16,-2,-27
8,-5,12,42,-29,-20,-7,-10
32,0,-13,3,10,25,2,6
40,7,-5,-11,16,-1,-4,14
47,-4,21,12,-12,-19,-12,0
15,1,-5,-27,10,-32,0,18
-5,10,-12,2,-39,-56,-5,-7
8,14,-29,0,4,12,4,28
112,17,20,-10,-102,32,15,-13
-128,-23,13,41,47,-40,4,-9
38,1,-5,-1,51,95,11,2
61,-5,-1,-17,-4,-27,-13,30
99,-3,-8,53,19,-5,2,42
127,40,6,-28,22,-46,-1,5
-128,-24,-5,6,52,0,-1,-53
46,-9,23,23,-24,-66,-5,6
59,19,-3,-58,-10,34,11,32
-48,7,-32,10,-11,-7,4,-3
-84,6,7,-10,-30,-16,-5,-14
-61,-1,22,-41,-43,-5,-1,16
35,-10,4,73,127,17,6,2
51,-1,0,-22,-31,-1,-5,7
57,17,0,23,30,-69,-7,21
-108,-24,-29,-16,85,32,-7,-19
41,-32,-64,-41,-36,-81,-19,-8
59,3,-29,46,43,53,5,20
-123,10,39,-57,-31,74,22,-31
-24,26,67,48,-9,-87,-19,-10
12,-14,7,-12,6,-17,-16,-4
48,1,-22,-7,-37,2,8,20
121,20,50,2,-2,13,1,19
-128,-30,-60,-9,-16,-14,4,-29
15,-7,44,-2,39,-13,-6,-3
127,18,-2,-6,-34,-26,-8,46
-128,-8,42,3,7,25,4,-29
6,7,-6,29,12,-9,4,-25
7,-5,-6,-5,-13,5,0,-12
60,-9,-17,-9,28,10,4,10
114,29,1,-4,11,-15,-6,55
-109,-22,-20,-4,-27,-56,8,-36
71,14,30,10,-5,127,32,8
46,1,-50,-14,17,-8,-14,-1
-22,-15,7,-19,70,-30,-24,-46
27,9,6,-14,-94,-53,-8,3
16,-1,5,16,-30,9,5,10
55,6,-10,6,41,-17,6,23
12,5,-4,-9,30,29,0,8
-128,-2,8,-26,-17,6,-4,-22
-11,-8,0,44,16,-6,-1,1
127,31,-21,-89,-2,-48,1,102
114,45,12,85,-44,58,12,-2
-128,-113,1,-6,6,-4,-10,-128
127,16,18,25,56,-128,-25,-2
127,6,-18,-14,-26,127,33,35
78,4,-11,3,5,-23,2,24
26,2,22,-40,5,-9,-3,10
-9,-3,-54,85,34,-11,-7,8
-27,-5,-13,-56,-128,-108,-8,1
-33,-2,-20,1,10,31,4,5
-42,-9,-15,6,-13,77,20,2
57,40,36,17,37,-20,-9,8
-121,-15,9,-16,-8,-16,-18,-26
-13,-7,-6,14,14,-1,-6,-16
-17,-5,-9,-22,-38,-18,0,-6
-21,-8,-3,9,-3,-72,-12,-6
4,5,25,25,112,90,24,14
7,1,-3,-25,-45,63,15,13
-16,-17,7,-15,-116,-55,-21,-25
-41,1,-17,33,1,-13,-12,-12
23,-9,28,-40,-16,-49,-9,20
127,43,31,16,77,-32,-7,44
-128,-21,-25,-52,-58,-12,9,-68
127,-11,-9,14,-78,-128,-17,-18
-43,-28,38,-8,27,119,4,-10
52,8,-11,1,-1,-39,3,18
49,2,-14,-33,0,-82,-15,21
-8,7,3,15,34,-6,-11,-5
1,6,9,-1,-66,17,21,6
-13,21,6,-12,22,-7,-2,4
-29,-16,94,1,-60,-18,-11,-12
-32,-28,-128,-11,-21,-24,-11,-8
127,15,0,-9,20,-6,-4,31
123,54,18,-17,4,-9,5,75
-128,-109,3,-31,22,19,3,-128
-128,-10,33,29,0,-25,-2,-43
127,-19,-20,-6,36,97,13,1
107,-2,2,4,-31,-83,-22,5
67,15,13,-16,12,53,-8,17
24,3,1,35,-31,8,3,13
-1,4,5,4,32,-59,-9,4
-9,16,8,55,-8,19,9,12
-27,7,11,-2,-25,-6,-1,-1
89,15,6,-21,-5,49,-2,24
-28,-13,-10,1,14,-14,-4,-24
39,-18,35,6,-16,5,7,49
-128,-6,-70,2,11,-35,-17,-113
61,-2,-4,-6,-13,26,0,-32
48,3,-5,7,-25,-36,-10,18
7,10,37,3,39,-66,-8,1
-8,-11,11,-21,19,127,16,0
-11,-2,11,4,23,74,17,8
5,3,3,9,-58,-22,4,11
-36,0,1,-1,2,-27,-5,3
-71,-9,-25,2,35,-20,-8,-13
127,28,1,-5,-33,-83,-10,18
-62,-6,1,-6,36,46,1,10
66,-18,-13,-2,-19,38,8,-23
44,-7,-15,-41,-50,4,7,2
15,3,9,36,14,-14,-10,1
127,5,-4,-32,34,-21,-6,33
-46,11,-9,4,-58,-50,-4,-17
-128,-18,10,-24,-16,-28,-8,-49
78,2,2,25,32,-20,-4,24
70,6,14,-4,24,73,3,8
103,20,8,16,-30,-13,-7,7
-128,-32,14,-6,-10,-59,-9,-14
127,31,-4,7,71,-13,0,111
30,30,16,-15,-27,65,39,-31
95,-23,4,-22,-79,-50,-8,-11
127,0,5,8,22,-28,-22,-49
-128,-24,-3,9,19,-25,-7,-34
114,6,-3,1,-11,-4,-1,29
62,11,1,-2,13,-48,-5,28
24,5,-8,-14,-75,-45,-7,17
-5,2,3,-10,94,62,6,5
69,15,-24,5,17,77,10,43
-55,4,-2,48,-1,-19,-6,-19
-18,-6,3,-13,-7,-36,-9,-20
53,-7,1,-12,-8,-51,-5,8
49,11,0,-40,-90,-31,1,55
-128,-33,-8,11,45,-43,-13,-67
37,0,1,1,-36,50,1,-23
127,20,6,6,27,1,2,17
-128,17,-5,-14,-1,-7,7,10
-112,-43,-13,9,-8,-8,-8,-24
127,15,5,-23,-81,-128,-16,81
-11,9,-4,18,127,127,-1,-31
62,-1,11,44,-107,-28,5,-23
50,-11,9,-41,27,-20,-2,-10
-102,-23,-81,-7,-35,-47,-11,-22
127,21,6,-24,-12,-26,-7,38
-83,-4,14,25,-47,-24,2,3
-128,-8,-3,1,-14,2,0,-20
-18,15,-14,13,43,44,11,4
-61,1,-1,-5,24,24,-8,-4
54,-26,-3,-4,-3,-52,-2,-1
127,22,0,-9,-19,52,8,95
-128,1,7,-9,-30,1,2,-50
26,-23,-25,5,66,15,-15,-64
103,-6,-6,-8,-94,-1,17,8
127,41,18,-2,-13,-21,0,43
-128,-9,-10,2,27,-11,-6,-25
33,-44,-6,37,41,-7,-7,-29
17,6,-11,5,-11,-4,-3,4
-2,12,5,-4,19,-25,-7,10
18,-8,-12,-21,-41,33,6,5
-95,4,8,-1,-16,53,3,-2
11,-2,-13,7,66,3,6,10
-16,-3,-5,-1,15,61,2,-1
-40,-2,23,21,47,-65,-10,-4
-22,-12,-5,-23,-36,7,-7,-2
39,23,-79,-23,-29,13,23,28
33,5,5,48,-32,78,6,-3
-40,-4,12,-13,34,-19,-6,-17
15,-21,2,-9,19,-32,-10,-2
-76,0,12,18,-22,-12,-2,-16
8,3,-16,-13,7,-21,-3,1
20,-17,-11,-7,-11,-30,-9,8
127,25,3,-5,2,31,15,49
-128,-13,11,18,-15,-8,-2,-37
127,16,0,5,41,-8,2,38
-128,4,-17,5,-3,37,-1,-67
-85,-50,27,20,22,-15,-8,-41
49,3,-70,-53,-59,-28,-4,18
92,5,-20,-1,2,25,2,19
65,9,-6,6,36,-33,1,22
13,16,21,-19,-16,-2,11,-7
3,-12,-7,20,7,8,-9,9
-17,2,25,25,-47,62,-4,-12
-29,-1,-1,26,61,3,1,0
0,2,-4,-38,-36,-4,-5,0
5,3,4,-4,37,-53,-7,4
-3,-7,11,-3,-3,27,2,6
59,-6,-17,11,-53,-59,-10,0
-128,-9,8,-1,-4,-36,-6,-28
31,0,-12,-8,43,84,21,-9
55,7,-2,8,-56,-22,0,10
28,4,16,-19,-26,-30,0,25
-128,-18,1,-5,-4,-22,-5,-22
127,-7,-36,15,34,-48,-8,-8
113,31,11,42,-29,68,16,18
-128,-30,12,-9,11,25,-9,-66
123,-29,-64,18,66,6,-4,-16
51,-5,10,6,30,-20,-3,1
127,28,12,17,23,-107,-9,26
-128,-23,-8,15,-40,127,45,-5
49,-3,-8,-40,-80,-61,-12,4
57,-2,-9,-2,11,-28,-2,10
-128,-2,14,1,9,-20,-6,20
-13,16,14,7,27,-12,3,-21
-128,-40,5,1,-37,4,-2,-22
5,4,-15,-27,-22,-4,-4,0
5,-2,-23,-7,11,-4,-6,3
85,25,3,11,46,-27,-3,72
59,-18,27,-16,-48,127,28,-26
-128,6,-22,12,18,-9,-12,-36
-1,11,-24,-42,-44,-22,-11,-40
14,-16,-5,27,-30,-32,-8,4
5,-3,2,14,84,24,4,6
-1,2,3,5,-11,-62,-5,4
-6,-2,-1,2,25,127,18,7
-5,-3,0,-6,18,-31,-2,9
4,-19,-22,-18,-19,-31,-9,-1
-27,6,-9,-43,-26,-20,2,-12
-29,20,48,38,13,14,5,3
-1,3,9,11,3,-26,-7,-6
-2,-2,8,-13,-25,7,0,-1
0,-6,-1,24,25,-14,-3,0
17,-4,-41,-12,-1,-26,0,1
19,15,26,-7,-53,8,1,-1
61,-1,-31,-32,-7,-12,-3,17
113,5,11,19,-10,-20,-2,9
-107,-3,11,110,68,10,1,-2
-16,-28,33,-9,23,35,5,-24
-6,2,-29,-8,-46,-9,-12,-24
64,4,21,-14,-16,-13,-4,2
-1,-6,-46,-17,-13,11,-1,1
18,28,1,-1,20,-3,-5,19
61,-9,3,17,0,-3,17,15
15,-9,-4,-5,-4,1,-8,-12
11,-11,-4,-33,8,25,-5,1
2,3,9,2,-8,-81,-15,-13
21,-8,-5,12,51,79,4,3
-87,-20,-25,-18,-88,-28,3,-13
31,23,1,6,11,22,2,5
15,18,18,17,38,-16,-10,-1
4,4,4,-13,2,-21,-9,0
-8,-4,1,7,-5,-27,2,2
21,-3,-11,-12,20,-7,-7,1
48,7,7,-6,-70,-16,11,5
0,-6,25,7,-17,-30,-6,13
15,-13,-19,-9,36,16,-2,-1
72,5,-25,-20,-24,-28,-12,-5
36,11,6,31,-14,-18,-5,44
53,10,18,1,22,-28,2,-32
-128,-39,-2,-2,-6,126,14,-57
72,-7,-5,4,-35,-13,-2,-15
62,-7,-25,-46,-28,-24,-8,14
36,4,-4,-17,-6,-17,1,14
18,9,2,51,21,-10,4,16
-2,-2,-8,-38,14,-8,-6,6
-10,-3,9,49,39,9,1,8
-18,-1,15,-64,-29,-43,-12,1
-25,-24,-19,24,12,-65,-3,-6
4,19,36,1,-21,127,12,10
-19,18,-2,-14,-8,-34,-6,-6
-24,-15,-16,-29,-19,-44,-11,-15
-1,-4,8,-10,6,-2,-6,1
-11,-7,4,-4,0,-31,-11,-6
14,-3,-4,37,8,-4,-4,3
-33,-5,-1,15,-49,-55,-9,-10
2,-4,14,3,-19,39,2,0
11,-1,-8,-47,64,-15,-4,0
118,16,13,-6,-54,-31,-9,6
-128,-36,-26,18,23,19,3,9
-75,-8,10,-12,-43,-19,0,-35
-47,-7,0,-27,-3,-12,-8,-13
64,12,-8,2,12,-48,-11,6
65,2,1,14,50,14,-5,32
47,2,14,-3,-26,127,46,46
114,34,-46,-12,-20,-11,-5,-47
-128,-63,0,-5,-45,-42,-13,-52
18,-4,-10,17,18,-29,-5,-13
46,0,-14,-48,67,-40,-19,6
26,3,5,41,-30,-15,13,11
12,-2,-14,-29,-25,43,3,14
-4,5,27,-21,-12,-29,-4,7
-7,12,8,6,-7,0,-4,1
5,1,-19,0,40,-18,-6,-1
-32,-1,9,22,11,-4,0,-4
-13,-2,2,21,88,20,2,-1
-6,-6,-15,-41,-61,6,4,5
76,-4,6,21,-21,-10,-9,4
-56,15,10,2,0,-25,-4,0
-22,-16,13,6,-30,-22,-5,-15
-20,0,-14,-18,-36,26,2,-11
-8,-18,-20,8,40,-15,-7,-8
18,2,7,3,53,-3,-9,9
48,5,-7,18,-21,-29,-9,19
127,41,11,-36,-30,22,5,-5
-128,-66,4,4,28,-51,-15,-44
-89,-16,-68,-53,-68,44,1,-61
73,14,1,55,49,31,0,-8
51,-5,-9,-4,-6,0,-10,12
30,-1,-7,-7,-61,-28,-5,8
4,-1,2,-6,26,-27,-9,8
-2,3,3,14,28,-48,-12,5
2,-5,-15,-21,-6,115,19,26
-37,-3,-9,-8,49,-30,-1,-7
-36,-8,-5,-8,-42,27,0,-11
2,-5,18,6,25,-61,-5,11
-14,-3,-14,-4,22,-15,4,-2
-17,22,12,17,-32,57,0,-14
14,-3,-4,-11,-17,14,1,22
-55,-12,-19,-28,28,19,7,3
61,13,6,23,-17,-26,-8,-21
43,-4,-2,1,-15,-32,-11,-8
0,-2,6,22,39,-9,2,24
-52,-9,-6,-22,-26,-15,0,-20
-34,0,22,28,-17,-28,-14,-39
-46,-16,-28,-11,30,35,6,7
35,-3,7,-14,-62,-45,-17,-4
18,-4,-33,6,111,-1,-6,10
11,0,8,12,-35,88,19,9
3,5,12,-2,-31,-2,-1,0
3,1,6,6,21,11,0,4
5,13,19,36,-28,-19,-1,3
0,1,-14,-65,-7,-11,-4,2
-21,-7,-3,40,-11,-49,-11,-3
53,4,20,48,41,-59,-10,8
41,-5,3,-8,-12,107,26,-3
-71,14,-7,9,15,96,5,-21
19,-12,-12,-5,1,-40,-9,16
-1,-12,3,-30,-26,-26,-7,-8
47,9,-16,60,25,-31,-2,9
-40,-1,-12,-14,37,31,2,-5
-3,-11,16,-27,-67,-2,-12,-28
82,14,1,14,16,8,3,11
-58,2,12,1,-30,-48,-1,19
-46,-4,14,14,48,-88,-11,-11
127,6,-37,19,103,127,27,12
-92,-24,3,-39,-122,-27,4,-13
10,-5,21,-14,-26,-46,-12,-17
18,-1,-36,4,-11,-46,-12,10
22,7,8,-11,-44,-30,-6,10
15,10,10,15,44,-11,0,11
3,-2,-2,-22,58,44,2,-2
-6,-8,-1,0,-54,-17,-6,-3
0,-2,-7,6,13,-9,5,5
-1,11,0,8,-2,4,-3,-1
-1,-2,9,-6,-3,7,-1,-6
-7,-5,-2,-3,9,-2,-3,-2
13,-3,-7,-3,-2,8,0,5
120,4,-16,-1,8,10,9,35
-128,3,40,18,-13,-16,8,7
-110,-3,-18,-37,-25,-84,-32,-79
55,3,-34,-10,82,109,8,-19
42,7,43,15,-10,75,23,16
28,-4,-2,15,-94,-40,-6,13
19,-8,-75,-7,56,-41,-8,4
-12,-8,3,7,19,-5,-6,2
-6,-4,-2,-16,1,-9,-4,1
-6,2,5,0,-4,-8,-3,5
-20,2,2,2,-15,-3,3,-7
-5,5,17,3,-16,-9,1,0
-7,-3,-8,-18,21,6,1,-2
-10,4,9,-43,12,-14,-6,-8
-12,-7,-6,30,-40,-86,-12,-4
5,-6,-15,-46,-3,19,-5,-4
17,-4,-4,24,7,69,18,6
62,8,18,-10,24,-45,-10,18
-58,19,12,7,-5,52,34,34
-128,-14,20,-6,-101,-43,-4,-50
113,11,-38,2,21,-27,-22,-6
-128,-48,-22,18,49,-13,-23,-56
-14,-23,-23,-7,27,-16,-14,-22
64,10,9,-8,-13,-11,2,21
48,8,1,-2,-7,-62,0,24
18,3,-3,-1,14,127,19,4
18,4,4,-7,-37,-1,4,16
1,5,3,16,10,-4,-1,6
-11,-2,-4,-1,13,-7,-2,-2
-11,-2,2,-12,-11,-7,0,-2
-7,-2,-15,-5,-17,-1,5,1
1,-5,-6,6,4,-5,-1,5
-18,-9,1,-34,-7,-18,-14,-8
-35,-3,-2,-12,15,-27,-10,-18
7,2,9,4,0,26,-1,5
-2,-3,-3,-1,16,-4,6,4
-8,0,-5,-2,-16,22,-1,-3
-4,1,3,-25,-68,50,5,-9
-4,-7,-6,4,28,-43,-14,-10
-7,-2,-4,-11,-13,18,1,0
0,-2,-4,24,13,-25,-1,3
14,-9,30,3,11,-40,-7,9
49,20,11,24,-4,20,4,0
101,40,-24,-42,-65,-25,-2,13
-128,-40,0,-19,-13,-37,-11,-44
-65,-6,28,10,29,-13,3,-29
127,11,-5,23,69,34,6,18
-128,-32,2,6,-12,17,-5,-30
32,-7,-2,-11,12,-20,-11,2
13,-16,-10,-1,-18,-5,1,2
21,9,5,6,17,-29,-7,12
-5,8,11,-14,28,-25,-8,-2
-12,-6,-5,13,-64,111,26,7
-9,6,8,-43,-17,25,1,4
-15,-2,3,15,24,-38,-10,0
-7,0,-1,0,-14,10,2,1
-20,-3,3,-21,-5,-9,3,-6
-4,2,-21,18,36,-43,-13,-5
-7,-4,-9,-69,-63,33,18,2
-10,-3,-9,11,-6,15,-2,1
3,-2,-6,-2,25,1,-5,-1
-7,-2,-2,0,7,-38,-9,-2
-2,-1,1,-1,-30,-18,-5,-1
-7,-4,0,-10,76,-42,-19,-6
0,-5,-17,-49,-47,127,46,7
4,2,-22,47,-28,-31,3,3
1,-1,3,-24,5,-33,-6,0
-2,-4,8,9,-2,-17,-3,0
-2,-13,-8,-32,-6,-20,-7,0
-16,-7,6,21,11,-15,-6,-11
46,10,33,-1,36,-29,-4,9
54,7,-41,-20,-53,-8,-9,-5
42,22,-33,-45,-62,1,-1,13
-112,-13,-15,-13,14,31,4,-37
-128,-25,29,31,47,3,-15,-55
124,-5,-7,-4,61,-8,0,19
97,9,-4,13,-22,-7,9,17
13,-10,6,-7,-6,-21,-1,5
-32,-1,15,-1,30,3,-5,2
10,-9,-15,-20,-19,-1,3,3
7,-3,-12,-16,-65,-9,2,3
5,-1,-4,-18,11,43,7,1
-1,2,-3,-8,18,17,-1,0
-2,2,4,-3,-2,-20,-4,0
-6,1,0,6,2,-13,-3,-3
-9,-1,-1,-16,62,-41,-11,-6
-10,-3,-3,22,-97,-15,0,-2
5,-3,0,-19,43,0,-1,-4
29,-7,7,39,-2,23,9,7
1,-1,-5,-16,14,-20,-9,3
-64,-10,-1,-39,0,-36,-22,-9
-3,-5,-16,-15,-8,-7,-4,-11
41,7,0,-23,33,44,17,8
-57,4,-3,-8,-49,-2,-2,1
9,6,16,12,9,-27,-10,-12
-4,-13,14,15,17,-81,-9,-8
118,5,-42,-10,41,89,2,39
-21,0,3,-7,-13,-8,-8,-23
-111,-22,6,-12,-68,19,11,-16
21,-11,-19,-5,17,1,2,-4
16,-3,2,8,30,-34,-4,4
22,4,20,1,-12,-19,-9,5
33,4,-22,-33,-9,-13,-3,7
98,24,0,43,-8,-37,-2,9
-128,2,14,9,89,38,-2,-12
2,-8,-1,-14,-97,20,15,-19
-77,-16,-29,34,6,-12,-7,-2
25,-9,3,-27,3,-10,-5,7
41,9,8,-20,-28,-13,0,-3
18,-10,-24,-7,-18,-52,-17,-13
-70,-9,-2,1,-14,9,1,-11
49,8,8,19,17,5,3,-8
-128,-14,-4,-35,9,-1,4,-4
-22,-5,-2,19,14,15,0,-3
21,9,4,7,0,2,6,6
116,13,1,-5,-97,47,28,39
-16,6,17,7,-6,-41,-5,-5
9,-21,-7,-4,-15,-35,-13,5
-107,-6,-4,-34,20,-47,-9,-8
-15,-13,-18,-8,39,41,10,-38
30,7,-19,-33,-37,56,10,1
19,4,25,8,87,-26,-5,5
22,5,16,42,9,23,-2,16
31,7,8,29,-61,-59,-10,-3
-87,-20,-8,-51,-30,-35,-8,-16
39,0,26,6,-10,31,-6,24
-9,-4,-15,-40,-32,27,5,-32
6,-3,-8,28,54,-17,-7,-11
9,0,6,-17,-10,-5,1,3
-5,-2,-30,-2,-56,-62,-2,5
-73,-1,14,18,67,31,-11,-14
1,7,1,-17,-57,14,17,-2
40,6,-6,17,0,7,5,4
-76,-4,4,-5,10,0,4,-3
23,-15,-12,-37,-6,-25,-12,0
39,10,-10,-4,0,-31,-6,6
14,-6,17,41,-5,-8,-1,4
18,2,22,-20,-11,-20,-10,-8
-16,-19,-4,-40,-13,14,-10,-4
10,0,-9,0,-3,42,5,10
-35,14,8,-8,-59,21,16,-5
19,-12,-16,-73,19,-9,-8,0
1,-3,-5,-9,7,-5,-1,5
31,-4,9,36,14,2,0,2
39,20,35,3,-10,-45,-15,-17
22,-21,-18,4,1,-36,-11,6
-22,0,-21,-21,-8,37,5,-8
26,3,1,19,25,-18,-9,3
11,-10,-4,-15,-30,6,4,1
20,2,7,-20,-33,-8,0,5
-9,-2,-2,15,23,-2,-1,-1
16,-7,-5,7,-10,-42,-7,-2
72,1,5,5,43,15,-1,23
-10,6,-4,3,29,-13,-3,-11
-128,-18,9,9,-67,62,7,-35
-25,1,24,-7,-3,16,1,-17
99,15,-25,-54,52,31,3,19
72,-1,16,47,-16,-69,-23,-6
-22,-20,-4,26,20,11,-3,4
25,4,-3,-96,-39,-15,1,-3
14,0,-2,-10,-31,-48,-4,-9
-1,-7,-2,10,38,3,-6,0
32,0,2,11,44,39,1,10
16,-4,-1,-3,-11,-13,-4,17
-33,3,0,-1,-61,-18,-3,-10
-10,0,-3,-30,45,4,-7,-6
1,-7,11,31,-70,-53,-2,1
-6,3,-20,-6,22,126,26,0
-6,-1,-15,-16,-13,12,-5,0
52,10,-11,10,11,-14,-8,11
-39,5,0,-16,5,-7,2,3
92,1,9,-2,-26,-80,-16,10
-92,-12,2,17,44,73,9,-29
-7,-17,-2,-15,-5,-19,-11,-33
51,-2,-11,-41,-35,-28,-6,10
25,-6,-14,50,29,-5,-2,7
40,0,14,-9,1,-34,-9,5
27,9,-8,7,33,25,-7,11
-16,-2,-7,-27,-7,23,21,8
14,12,2,29,-63,27,1,5
61,5,5,-40,-17,-85,-12,30
-128,-10,-3,-17,27,39,-2,-46
-15,-20,9,-8,-25,43,9,-16
103,14,4,-18,-10,-28,-5,5
-55,7,-3,12,17,-6,-7,-21
-23,1,-7,-2,0,-13,-6,6
48,9,-9,9,20,3,6,3
1,-11,0,-12,-11,-24,-3,4
111,11,-10,10,29,-36,-5,12
-128,-29,-1,16,40,74,10,-29
42,8,-6,10,-39,15,11,3
40,15,0,-29,-33,7,-1,6
5,0,4,48,10,-11,-5,8
-20,-14,-2,12,41,-8,-8,-9
17,-1,-1,-5,-11,-48,-6,-6
-85,-3,-6,-3,2,-47,-11,-10
-61,-3,2,-12,-30,104,22,-3
29,-13,-2,-10,-1,-63,-21,11
-10,-1,9,-3,42,100,18,4
34,6,-7,9,-4,-8,-8,5
53,11,6,53,-6,0,0,1
-35,-1,34,-8,24,-7,-7,-21
-31,-13,-19,-46,-41,-37,-13,-2
-51,-3,-3,-1,-2,38,7,-8
28,1,-6,-11,5,-30,-5,-2
84,7,0,38,29,-21,-9,19
-10,-15,-6,46,56,70,6,-6
-34,5,1,-1,-14,-1,9,11
51,21,17,-1,-22,-39,-2,2
-128,5,20,-15,5,13,-2,-37
106,-15,8,-8,10,10,6,33
-14,-13,-51,-14,-23,-49,-10,-9
-32,-6,-8,3,5,109,5,-12
-1,-2,-1,-7,17,34,6,-11
-16,10,16,-25,7,-18,-9,6
76,0,7,-6,-38,-97,-19,19
49,15,6,50,48,127,37,15
-59,-8,-5,-38,-13,-29,-13,-19
17,-16,14,22,2,-32,-15,-16
38,4,5,-4,17,-57,-10,4
-37,-6,5,12,31,75,8,11
-16,2,-9,-30,-67,-28,3,3
16,4,15,2,22,17,-5,-10
11,4,-30,34,1,-4,-10,-5
31,-1,3,-17,13,-43,-3,5
-10,-2,-14,-28,21,-56,-11,-7
-21,-19,-6,34,-23,89,14,0
75,12,12,-15,-58,4,-10,16
-128,-30,10,-27,-9,-12,1,-31
-64,-13,16,6,61,17,-7,-20
22,-10,-30,-13,-42,-43,-8,6
127,23,1,-1,92,-83,-18,53
-128,-7,-3,-4,-43,79,12,-27
127,9,15,3,-24,-17,-3,9
82,12,22,7,28,-51,-15,1
-128,-39,-7,-10,-37,1,-11,-60
-29,-10,5,-8,1,72,5,-26
-15,15,0,24,-9,-3,-2,-24
7,-6,1,9,30,3,-4,1
15,1,6,-7,-13,-26,-4,12
11,-6,-2,8,33,-21,-1,14
27,16,3,5,24,-41,-2,28
37,11,3,-16,-26,33,5,16
100,16,-10,-4,-71,-2,10,-7
-128,-27,-19,-7,12,-83,-14,-21
-11,0,13,14,60,35,-5,-8
66,-8,-14,-25,-50,67,5,-14
-86,-14,6,6,11,16,6,1
81,13,18,-7,-18,-40,-8,16
47,9,-5,-1,15,-22,-2,-1
-128,-21,-19,58,-4,-3,1,-2
127,48,-9,-19,24,-11,-1,121
-128,-14,5,-1,-6,-2,-1,-69
-101,-32,9,45,21,-10,-9,-83
126,-6,-17,-47,-22,-17,-11,-5
127,3,16,13,-37,5,5,14
82,8,-41,-35,-18,-31,-8,24
41,4,2,-11,26,27,2,18
0,-2,-5,23,2,18,0,5
-11,5,1,-4,12,64,5,5
94,19,6,17,-12,-11,11,44
127,11,-5,-24,-9,-27,3,47
-128,-29,16,1,94,0,-6,-70
127,1,-27,-20,-116,5,-12,-7
-128,-6,-12,17,8,-5,-7,-40
49,-16,8,-75,-15,-8,1,-7
21,-2,-9,29,25,-72,-15,5
10,1,-2,-4,44,-34,-9,11
-5,-1,-26,-65,-28,91,16,14
-13,12,33,-20,-20,43,7,6
-19,-5,-5,24,-42,-12,0,-3
-2,-4,-13,-35,18,-27,-6,10
-33,-8,-2,9,57,-52,-10,-8
-37,-8,-2,-2,11,16,1,-3
-8,-5,4,8,11,36,1,-4
19,13,-2,-10,4,-30,-4,0
6,6,0,-1,-18,7,0,3
-17,-5,3,-6,5,-29,-3,5
-28,0,-3,-12,-47,56,4,-14
-14,-16,-6,-11,29,-4,-8,-15
6,-1,-1,22,19,-11,2,4
6,0,2,-2,-27,-8,1,12
127,30,9,-2,36,-5,0,45
-128,-36,-13,-5,-21,-26,-5,-25
12,-16,-8,-26,2,12,9,-45
62,-4,-9,41,25,-69,-23,-20
127,37,12,-12,-7,127,34,31
-128,-23,1,-4,-32,-44,-6,-1
127,-9,-6,-8,1,38,1,-6
-78,3,-11,-4,27,-24,-8,-3
32,-8,-3,-16,-55,-12,-4,-15
0,2,4,-2,31,67,6,-10
-5,8,-8,-23,-1,-33,-6,4
72,13,11,38,28,34,1,12
-62,2,1,23,-32,24,6,-5
-44,-6,0,-10,30,-16,-6,-20
55,10,11,6,-2,-7,1,17
51,-1,-15,14,34,-59,-9,30
-54,-1,-9,-20,-37,90,27,-17
-81,-27,-7,5,-23,15,5,-36
47,11,12,-26,37,-35,-1,-9
61,-9,-7,1,8,79,3,54
40,3,-3,-7,-16,-18,1,2
-68,-5,4,-2,-15,-19,-15,-20
54,0,-13,-11,7,-24,-10,-15
12,-6,6,20,-2,-22,-3,10
18,8,-8,12,56,-8,0,-4
40,9,-8,14,-10,95,16,7
44,1,-5,-25,39,-8,-7,7
-29,-13,-12,14,-16,-21,-5,2
78,-13,-16,-25,-13,13,0,-4
52,17,-1,41,-2,-1,-5,15
-128,-38,-3,-44,-6,-18,-5,-33
-49,-14,-7,49,7,16,4,-13
30,-3,-3,-2,19,-34,-10,0
40,-4,-24,5,12,20,1,1
34,5,-17,-6,-6,-36,-5,10
58,5,3,-19,30,53,12,24
-39,4,25,11,-51,52,8,1
35,2,7,-21,-59,2,15,-14
-38,-6,7,17,34,-31,-25,-50
10,-14,-23,-10,-11,-32,-12,-1
20,11,-15,-12,17,-12,0,10
-73,-19,-3,-6,-31,-41,3,-18
-65,-2,15,32,25,34,10,8
-57,-21,-27,-36,3,-6,-16,-21
41,6,1,-7,-17,-20,0,2
36,15,16,-27,30,-79,-7,16
12,14,0,82,26,86,12,3
1,-10,-13,-11,-49,94,21,-2
34,4,-1,-24,-48,-41,-19,-2
-128,-16,2,1,10,-41,-11,-25
-21,-9,-1,-7,20,-2,1,3
-71,-19,-8,7,19,-3,-2,-39
35,2,-10,-9,-16,-9,2,-7
66,15,4,-5,6,-14,-2,8
55,-1,-2,0,-25,-2,-1,25
127,14,-3,-3,-3,9,-6,-8
-128,-42,-10,13,28,-46,7,-33
126,-16,-8,1,32,57,0,-23
82,5,5,-19,-73,-83,-18,11
66,10,-1,7,23,33,-8,12
-9,-3,13,-6,5,48,9,1
50,25,7,16,0,-18,1,35
127,11,5,-15,-16,-18,1,0
-128,-26,-3,-1,50,-36,-9,-45
73,18,0,12,-13,34,11,59
127,26,3,1,-27,-34,-6,45
-88,-35,-8,-35,-24,51,-7,-90
-128,-25,4,23,76,-23,-8,-44
87,6,-7,2,28,10,-3,17
50,6,4,-10,-39,51,12,24
31,12,1,-41,45,-39,-13,26
20,15,-1,8,-41,-128,-8,15
127,2,1,-11,-14,127,25,14
-128,-38,-8,36,4,-27,-2,-55
-52,-4,-2,-33,-17,-47,-12,-45
-23,-2,-1,-42,-28,7,-6,-9
21,1,-7,9,15,-30,-3,8
4,-2,9,18,43,-64,-11,8
30,5,14,0,10,10,5,13
-46,-4,6,-14,8,-5,-2,1
-7,-8,-4,-16,-60,7,-2,0
-16,14,-10,-18,14,-9,0,-7
99,32,18,33,-21,-17,3,29
-128,-29,12,44,-17,-17,-9,-15
52,-8,-1,-38,0,-46,-3,-14
23,-1,-14,-9,85,34,-3,10
56,4,-5,-19,-38,17,8,18
87,14,4,-1,48,18,10,2
-128,-40,6,30,-102,1,-7,-53
-21,-12,-10,-11,14,-10,-13,-22
46,5,-3,-7,23,-21,-8,7
20,4,4,20,30,7,-2,6
36,-1,-4,-16,1,8,5,24
5,6,2,19,3,-20,3,22
127,28,5,0,5,-40,-14,24
-128,-23,-7,-25,-37,25,-12,-22
26,-15,-15,-27,-14,55,13,-26
-103,-19,2,11,-9,-8,0,1
-20,-7,-13,22,-1,-18,-6,-25
13,3,12,-47,-38,-21,-6,1
11,3,10,-40,3,-43,-3,14
69,0,-8,-2,-4,33,6,10
49,22,26,-2,-4,-1,4,20
-128,-11,-34,15,31,18,-2,-19
-22,-10,23,2,-2,-26,2,-9
18,2,10,2,31,24,-4,-3
115,19,-2,-8,14,32,8,37
113,1,-12,-9,-89,23,10,19
-128,-11,3,-2,-19,-12,-2,-13
-35,-14,-10,-8,12,-58,-23,-60
45,-2,2,8,67,88,11,-11
0,1,5,-5,-39,-18,3,26
69,10,2,-4,-22,-65,-12,11
-50,-6,-2,-52,-34,-28,-13,-3
97,16,2,20,33,83,12,27
41,6,5,82,116,-111,-24,-9
-128,-26,-7,39,-39,108,30,-23
93,-3,-19,-59,-39,23,-9,-6
46,2,-2,-4,-15,-29,-10,5
20,1,13,-15,-15,-20,-2,7
27,10,6,-15,9,-24,-7,7
-13,4,8,38,1,-69,-5,6
-19,-6,-9,-33,26,106,18,-5
93,11,-18,-8,17,-8,-2,54
-3,-2,14,2,-14,-12,-7,-27
20,-16,-10,6,2,-65,-14,-27
91,24,6,10,-2,46,12,21
-110,-13,1,-10,-45,-17,2,-4
-1,-5,19,9,49,18,-7,-13
4,8,-1,-19,-38,-19,-5,-9
54,2,-3,18,4,-17,-3,7
51,20,-5,3,12,19,8,30
-128,-19,-10,4,-12,-9,0,-28
97,-22,-4,-6,3,-11,-6,-6
-28,-4,1,-12,7,-12,-6,-35
23,2,1,-6,-50,11,-1,1
18,7,-4,-12,2,6,2,6
7,1,-3,9,23,0,0,7
-23,-6,3,17,-5,2,-5,-6
19,8,12,19,36,6,-8,15
44,14,2,14,-8,21,3,4
-96,-15,-20,-39,-21,-42,-8,-16
-80,-4,8,-18,10,-7,-4,-13
-12,-14,-10,10,35,-63,-6,4
-113,-15,0,-29,-47,127,30,-35
25,14,26,9,-26,-51,-9,3
66,-2,-22,45,33,-29,-10,29
-45,11,5,17,27,-18,-1,-10
-9,-26,-4,-27,-14,-28,-8,-25
-108,-14,-6,-5,-9,-11,-9,-17
47,-5,-1,-10,34,-80,-14,1
-12,-6,5,46,21,118,17,23
35,18,-12,-37,-105,78,18,9
64,-1,2,17,42,-35,-14,26
127,21,-4,-3,-8,-110,-21,6
-128,-61,-20,-28,1,127,8,-73
-89,-36,-1,21,18,-11,-6,-45
95,-5,5,6,4,-17,-8,13
57,3,-2,-53,-5,-32,-5,10
21,-9,7,45,25,-24,-8,5
50,15,-5,-74,-67,48,8,9
-64,16,-13,3,11,8,-1,7
-24,0,-8,-2,39,4,-5,-10
53,9,-14,16,16,1,3,-5
-75,-21,8,-21,-15,-25,-5,-31
-128,-4,-5,33,-1,-7,-5,0
92,15,-8,-33,-41,-5,7,10
127,39,1,-5,9,13,4,47
-128,-88,-12,-12,2,-42,-13,-97
1,-14,23,18,7,17,7,-57
107,9,7,-13,-22,16,5,11
65,4,-8,1,47,11,-3,10
30,-1,-16,-11,5,-26,-8,10
16,13,10,6,-30,-48,-5,19
-18,-3,-4,-20,16,105,4,0
-128,2,3,6,26,-35,-4,-13
37,23,-1,62,1,-7,-2,5
127,9,-2,-29,25,-120,-13,36
-128,-30,11,22,44,127,11,-53
-128,-17,-10,-11,-98,-21,1,-4
127,21,7,-17,16,20,-4,16
-128,-26,-5,10,27,-27,-11,-54
86,8,6,-34,-10,-58,-13,18
20,-3,2,37,0,15,-4,-9
19,-1,-22,-19,-36,-25,-3,20
-50,12,-2,-12,29,17,0,3
-128,-34,-13,2,-4,-7,-3,-34
15,2,0,-1,5,-28,-3,-1
7,6,2,-9,-10,11,-5,1
66,9,-19,10,5,10,10,22
-122,-6,7,16,-3,-27,-7,-27
-69,-17,-21,-3,27,65,9,-10
36,-3,-4,17,18,18,3,5
25,-4,5,-6,-2,26,3,9
56,19,10,39,14,-5,5,15
-35,-4,-19,-10,-14,-34,-7,-14
-76,2,-2,-19,0,12,-7,-31
-31,-2,-1,-3,-9,-26,2,13
-7,-3,6,-4,-51,0,-1,-2
-48,-13,-2,-7,27,23,-1,7
23,4,2,20,2,-29,-4,-6
-38,0,4,4,39,26,-2,5
-2,-14,10,62,13,15,4,5
-11,2,-14,-20,3,-21,1,-16
109,-1,-7,12,-26,-20,-12,11
-87,-9,3,3,-4,-29,-12,-11
38,4,2,-12,1,-20,-4,-9
25,1,-1,-9,-9,57,9,35
-55,0,-2,-11,-16,49,8,0
116,-1,-21,-24,-13,0,-1,-11
-59,-12,4,13,-6,-25,-8,-25
90,3,6,10,54,-26,3,33
62,2,3,30,11,12,6,-6
-124,-8,3,-36,-43,-25,-5,-14
-79,-8,-4,7,21,28,2,-20
-10,0,-20,-19,-18,-59,-9,0
54,2,-3,4,1,18,6,28
33,17,-4,-11,-5,-39,-7,10
53,14,8,-6,-30,-10,11,-5
-88,-24,14,35,46,49,9,2
-35,-10,-9,-5,6,18,1,-15
3,0,-10,-12,-55,-21,-7,-4
2,-1,-5,7,12,-2,-4,-1
5,5,3,7,-32,-15,-6,0
9,5,9,11,7,-27,-2,3
-21,0,-22,-35,20,40,4,8
-16,-8,1,6,13,-13,-2,-16
-24,-9,8,-10,-29,12,-5,-4
103,10,-6,-4,4,-9,-5,5
-77,-11,17,-4,-1,-14,0,12
41,5,-6,-16,-51,-16,5,21
50,-8,-5,28,23,-13,-16,7
-73,-7,-7,-9,-27,7,8,-43
36,7,16,21,-8,54,6,-14
87,3,-17,-29,3,5,8,25
127,29,13,34,14,-18,-4,45
-128,-37,-17,-17,-14,-22,-10,-52
-57,-10,15,12,28,0,-3,-36
78,3,6,-6,24,63,13,23
52,10,6,23,-35,-68,-10,8
2,-6,-1,3,72,-5,-9,-18
14,2,-21,-27,-45,53,14,11
76,17,5,3,-46,17,7,24
-125,-9,14,11,14,-22,-7,2
-38,-22,-14,-52,40,-55,-20,-20
17,12,5,25,35,82,9,-7
-40,3,1,9,-128,44,24,-3
7,4,0,2,18,-24,-9,5
22,-1,-3,13,22,-6,-4,8
5,2,-9,-25,-32,-16,-8,-1
10,-2,3,-12,23,-10,0,-2
-7,1,-5,18,42,-10,4,4
-8,7,2,5,18,31,4,0
-11,-4,-6,-8,-25,-11,-5,-12
32,-11,-17,-27,-6,-14,-5,1
-8,-4,4,20,-14,-2,-3,-7
-32,4,3,-11,5,-29,1,-5
106,21,12,12,-23,-34,-7,44
-57,5,2,-25,61,119,30,-15
-52,-32,1,28,-27,-10,-9,-46
127,13,-7,-7,-24,-24,-6,54
87,35,20,-9,51,-32,-18,-15
-128,-54,7,3,2,56,8,-60
86,-3,-6,12,-24,-16,-11,6
8,-5,2,-82,-7,-28,-7,11
9,-4,-19,15,36,-11,-7,7
-5,5,-3,-6,-61,-14,-3,4
2,0,-1,-27,-20,11,-3,8
-59,-6,-13,40,22,-44,-18,-8
-29,1,12,21,68,50,8,-5
42,2,-2,-41,-22,65,14,16
-19,0,1,30,7,-51,-9,23
-6,6,12,11,-11,11,-7,-23
-15,-12,-17,-24,8,-6,-2,-8
-7,-2,2,19,5,-28,-13,-3
113,29,-10,-3,31,13,15,62
-128,-27,-5,27,54,26,9,-25
21,-13,11,-39,-29,9,-6,-43
-128,-25,-14,-9,-49,-6,-2,-48
37,2,-20,-12,-8,-24,-7,1
33,0,11,10,-9,16,-5,12
18,11,3,0,25,-31,-9,8
0,8,9,4,16,-22,-5,-2
9,2,0,7,-30,9,6,9
28,-12,-28,-28,-15,-6,6,14
-10,-1,3,20,0,-11,-2,3
15,0,7,15,-1,18,-1,-4
-16,3,-2,-11,3,-18,-7,-5
23,3,-6,3,36,-27,-1,8
27,-8,-13,9,6,4,-2,15
25,21,-1,-15,1,47,16,-5
-128,-16,-7,-8,-59,-36,-17,-28
10,-16,1,13,15,2,-8,-21
18,-19,3,-20,0,-88,-7,-14
-17,-2,-2,64,100,51,-4,0
41,9,-5,-37,-85,28,17,29
-18,3,-4,-24,10,-15,-6,-7
19,-1,-6,-5,-48,-18,-5,-4
-82,-9,-3,-9,32,-24,-7,-7
-6,-1,-1,-14,13,23,-2,-1
-15,-1,-2,15,-17,-41,-8,-7
1,3,5,8,13,41,14,5
6,-2,-14,3,-5,41,0,2
-2,6,30,3,-15,-28,-1,10
98,5,-17,-9,19,-10,-1,10
-106,0,-22,-12,7,-29,-17,-15
20,0,-6,0,48,-6,-8,-11
-66,-7,11,5,-41,30,9,-7
58,1,4,10,24,9,-3,-2
-128,-17,-9,-9,-31,-7,0,-30
66,-11,-6,-10,-19,-18,-2,-15
75,12,1,16,48,17,2,23
127,20,6,2,51,-14,-5,68
-128,-20,6,-22,-21,10,-2,-53
55,-12,2,-10,-18,-64,-11,-23
44,3,-11,-16,48,20,1,9
41,-3,2,76,-56,65,6,6
17,1,10,-80,-17,38,13,12
13,0,-3,-19,30,-1,-6,10
-1,4,-6,35,7,-24,-5,3
-58,-6,-5,-13,-45,-27,-5,-7
-9,-6,-2,14,32,-6,-6,-5
19,2,6,3,38,4,3,10
27,0,3,14,-49,-15,-2,2
-21,-2,-2,-21,-1,-8,-7,-13
-94,-5,2,-2,9,-11,0,-8
21,1,-4,17,11,-10,-2,12
79,10,11,-16,63,-66,-25,1
-98,-26,-4,-9,-49,127,46,-9
52,13,22,1,-26,-20,-5,6
65,12,-20,30,32,8,-2,9
40,-9,-20,7,17,1,-3,-5
-39,-2,2,-19,-3,-10,-8,0
1,-2,7,9,0,-25,-6,-2
11,-4,-7,-5,-16,-25,-7,10
-40,-2,0,-11,11,27,0,-8
-17,-4,-5,-3,32,6,4,-3
-16,-6,-5,8,20,-4,-6,-2
7,-2,-5,-11,-45,-26,-4,7
-4,-2,0,3,17,-30,-2,-1
-28,1,0,6,-2,127,23,-4
3,10,15,2,-12,-46,-4,3
-2,-5,-11,-6,-8,-10,-8,-2
1,-6,-13,-11,70,12,3,-1
15,-5,-8,22,-43,-6,-2,1
-10,-14,9,7,-12,-27,-6,-8
-38,5,17,8,20,-5,-6,-3
93,22,-20,-27,2,9,2,38
-2,23,12,-6,-18,-57,-13,6
-128,-38,-14,19,63,117,27,-24
58,-9,-3,-19,-57,-22,-8,-29
47,-2,-32,15,25,2,-2,6
57,-1,15,-3,16,-22,-10,4
73,16,7,13,-55,-19,-9,12
-65,3,3,1,60,12,-2,2
9,-3,-4,-3,-1,17,5,1
27,-3,-24,5,-32,-28,6,6
82,4,4,-37,-36,6,-1,18
-94,-16,-11,55,35,-23,-6,-13
-96,2,-2,0,38,74,22,0
28,23,8,23,-23,-64,-8,16
127,20,11,-41,-6,14,4,31
-128,-48,-26,36,16,21,4,-49
31,-23,-16,-17,8,-47,-23,-28
71,6,9,33,7,-6,-6,-2
72,1,5,-38,-44,13,8,9
15,2,-11,-3,20,-5,-4,8
13,11,15,-6,37,-7,-2,10
11,0,13,7,13,-67,-17,-2
89,14,-1,21,-9,2,-3,39
-111,-5,22,-4,-58,91,27,-14
-92,-17,-6,2,-36,-32,-12,-39
13,-17,-33,-20,17,-5,-10,3
0,1,0,-12,-6,-18,-7,2
-1,-3,-4,19,19,1,-1,2
-11,-11,7,18,7,-14,0,1
4,5,4,-1,3,-2,0,3
100,30,6,-5,-8,-23,-11,20
-128,-20,-9,-16,26,-101,-20,-34
77,-9,10,4,-14,127,31,8
27,0,-15,9,-77,-7,6,-15
37,-3,-3,26,53,-23,-6,7
-4,-1,1,-26,0,-32,-12,8
6,0,17,3,7,-5,-18,-21
-1,-1,-6,-25,-31,-11,2,1
30,6,-5,7,22,-6,-4,9
25,-12,6,17,14,-14,-13,5
-39,11,16,21,18,46,10,-3
10,-7,-25,-33,-37,0,6,1
16,2,-8,-27,23,-15,-3,10
113,13,2,-2,-40,-61,-8,26
70,22,9,11,16,18,4,17
-128,-32,13,-10,-55,3,-15,-66
-55,-21,-5,-3,10,-10,-15,-34
109,3,-8,2,55,20,2,16
54,-13,-1,-13,-42,-17,4,30
-16,1,1,2,7,58,13,-5
-111,13,1,8,-17,-21,4,-16
20,2,-10,3,-38,3,-10,2
13,-6,-4,14,52,-12,-4,-3
18,0,-4,13,75,-45,-13,3
-23,-2,-11,3,-38,94,22,7
2,-10,3,-12,-40,4,10,2
7,14,15,0,-9,-13,-3,5
-11,-4,-17,17,26,-11,-5,-5
7,0,3,-11,-42,-29,-5,3
-11,-9,-6,-4,42,13,-4,7
-17,-10,0,9,-18,-2,3,-7
-24,5,0,-2,-5,-12,-8,-20
5,3,3,4,10,-1,4,6
-2,1,-5,-10,-20,-45,-8,-1
21,-8,5,32,22,-49,-10,5
31,19,17,26,46,118,17,17
5,-5,-13,-86,-64,23,14,-10
-100,-9,-1,-10,12,-25,-7,-20
-79,-3,16,2,-44,-23,-11,-23
31,-4,-1,16,49,-30,-15,0
15,-5,-14,3,9,-24,-2,5
7,1,2,-1,-53,72,11,12
-13,-6,-10,-3,1,-10,-6,11
9,21,10,-6,-29,-17,-4,-1
51,4,7,7,74,2,0,-3
-128,-46,-8,47,13,-9,-3,-16
9,4,6,2,14,6,-2,3
27,11,5,-21,-37,-14,4,9
2,-1,1,-8,-5,-11,-7,-11
0,-1,-9,-6,-17,-27,-4,-4
-2,6,-9,-9,2,21,-2,-1
-7,-7,-5,-1,-1,4,-1,-1
37,-1,4,-14,-9,-5,2,26
92,12,10,18,-36,-24,2,20
-105,-7,-4,0,65,-39,-14,-44
-32,-16,-7,-29,-25,68,1,0
53,10,14,-27,39,56,11,-8
-40,-9,-3,-6,-98,-43,-14,-21
-25,-14,-11,18,71,-63,-8,2
17,3,-6,6,-13,127,32,7
12,-2,3,-32,6,-17,-7,9
28,3,-6,-1,-7,-6,-5,5
-41,-9,-16,-4,-48,-78,-9,6
-17,1,5,6,52,8,0,2
11,9,21,19,-41,47,8,-15
-25,13,15,-3,17,21,-11,-16
0,-4,-2,-3,10,-37,-10,5
-5,2,-4,-8,-6,41,15,1
11,-3,-4,-1,-22,38,12,19
72,8,4,-18,-18,-23,-8,23
-34,-9,-16,-5,40,-21,-10,-11
-120,-7,2,11,-35,-14,-3,-31
0,-6,1,16,43,4,-2,-9
14,1,5,16,-27,-23,-3,1
10,-2,10,8,-8,4,2,2
-2,-7,-3,-4,23,23,-1,5
119,22,-9,-24,3,-13,-4,21
88,18,-10,9,-1,-2,-4,17
-128,-49,23,16,-18,10,3,-40
56,3,5,-63,-48,-5,-6,-5
29,-8,-13,1,-7,-25,-9,-1
48,0,-10,-42,14,-13,-2,12
-17,0,-3,45,-3,-41,-12,-3
2,5,6,5,17,-25,-13,-5
19,-7,-8,-11,-5,127,46,16
84,3,14,-14,-89,1,3,35
-9,24,15,13,52,-18,-8,0
-128,-25,-29,7,69,-20,-15,-54
16,-4,1,9,17,-14,-5,-8
-59,-3,-5,-6,-17,-15,-3,-5
3,-8,10,-32,-21,-29,-5,0
14,-1,-4,18,-9,35,12,19
5,1,4,38,10,2,-2,3
-9,0,0,-2,11,-1,-9,-22
-19,-9,-13,8,-25,-9,-7,3
48,6,16,-7,-22,-8,-2,23
-50,-2,-4,-7,-4,22,3,-23
23,7,-6,-1,10,-11,2,-2
-22,-2,-2,-27,-26,-18,-2,-2
60,-8,5,55,-42,-30,-10,-8
-128,-13,20,-3,24,15,-7,-9
41,16,-7,16,33,84,18,37
51,12,7,-11,-17,-49,-6,8
-64,-7,-4,-14,-1,-19,-4,-17
-48,-5,0,-5,-9,-41,-15,-31
-45,-17,-13,5,-22,77,10,5
-40,-11,-15,-24,0,-16,-5,-23
28,-2,7,3,1,-30,-6,10
47,0,-1,-10,24,-85,-21,7
14,6,3,-20,-55,127,52,16
-109,11,-3,75,-4,-47,-17,-11
5,-3,-12,-56,34,-51,-19,-11
3,-8,-3,-15,-44,13,5,2
0,3,5,8,41,-63,-6,0
56,-8,6,-5,3,32,-2,12
-32,0,-2,-20,-89,-12,2,4
-84,4,9,-6,12,-23,-5,-28
18,-3,-10,0,3,6,0,-9
-33,-5,-1,18,20,7,-1,9
9,-3,14,26,18,-2,-5,9
15,-1,2,-11,-17,-5,-4,3
-24,-9,-14,-22,-6,-15,-7,-17
-7,-5,-1,-17,8,-81,-13,-17
3,-2,-4,-3,30,34,-3,10
25,1,-3,-36,-95,41,29,15
-5,0,5,12,-46,-24,-6,-1
0,5,18,1,25,-14,-1,4
7,0,3,-5,20,-10,1,2
6,-10,-24,11,38,-12,-5,10
6,12,11,0,0,-22,-5,9
127,22,-4,-20,-8,47,1,-14
-92,-17,-6,-6,-3,4,1,0
-28,-26,-4,1,-6,-39,-11,-18
19,7,1,-38,-59,-21,-10,-7
32,4,-6,-11,7,-2,4,2
33,1,-1,17,20,43,10,22
30,-9,-5,4,13,19,2,19
-23,5,11,9,17,-99,-20,-14
-51,10,8,30,6,72,-5,-31
-29,-5,-1,-48,-63,-16,-2,0
11,-6,-10,-12,20,-21,-6,6
-11,2,-5,23,-24,-26,0,-2
12,-1,-7,4,-37,-9,-7,1
-23,-2,5,-20,28,-17,-1,-2
0,-6,-9,54,4,28,-3,-1
-10,-3,14,-9,25,-34,1,-3
6,15,-4,17,-22,-15,7,9
17,-2,-2,-44,18,-23,-7,0
-10,-5,-9,5,16,73,17,0
19,2,1,5,-55,-41,-3,12
34,0,-7,-11,-14,3,-5,3
-14,-3,2,-5,-8,-26,-5,4
30,5,7,3,-6,-23,-10,-36
-128,-18,-14,7,14,32,-1,-18
-9,-10,-7,-27,-15,-1,1,0
60,-4,-15,-1,-24,-11,1,6
-40,3,17,-16,14,-8,-2,10
60,9,-12,29,-9,-13,-2,5
-95,-11,10,-1,13,-29,-4,-31
40,-4,-3,-12,-37,-2,1,9
-12,3,8,3,-28,-27,-9,-13
20,0,-1,-1,37,12,1,6
10,4,7,-4,-26,-6,-3,2
10,1,-2,-1,37,-17,0,7
-1,-7,4,31,37,-7,-10,-3
-4,-4,-9,-17,-79,5,5,-1
-2,-3,-7,-17,-9,12,0,-1
-9,-1,10,17,22,33,2,-2
-4,1,-1,11,-15,-59,-5,-3
3,1,-4,-9,21,-16,-15,-1
12,-1,-3,5,-1,94,6,1
-35,-9,-9,-21,-14,1,-6,-13
31,0,3,-18,-4,-23,-7,9
-53,-7,2,38,9,-22,-2,-8
-2,0,4,-2,6,-30,-9,-17
-13,1,3,-10,-53,-16,5,-1
55,1,-2,20,-9,-28,6,42
62,11,6,43,90,28,10,8
-83,-9,-10,-38,-38,12,-15,-52
-10,-3,-3,10,-14,-27,-10,-3
41,-11,-4,-6,45,-112,-24,-15
52,6,12,-9,-44,91,11,5
-128,-14,-25,-40,-54,32,17,13
1,-1,8,26,19,1,-5,-6
30,-16,11,5,13,-12,-1,10
26,16,-15,7,-44,-38,0,1
-4,15,-5,-14,33,-26,-8,10
-5,-10,-5,-8,48,6,-4,-6
-22,0,11,15,26,-23,-3,-12
7,-4,8,-1,-21,18,-1,2
0,-5,14,-9,-15,-2,-5,15
22,-3,-4,0,-9,-44,-5,4
35,6,-9,-1,20,5,-6,-1
63,10,-9,16,-42,14,8,-3
-128,-29,-14,-18,7,32,-1,-30
21,0,9,24,16,-62,-12,-11
26,3,-4,-53,-12,25,8,14
16,3,2,8,18,8,0,5
1,1,-1,-6,-49,-20,-4,-2
30,1,-3,-15,31,2,-1,9
37,1,1,21,-7,-13,-11,-2
53,10,10,12,-21,-45,0,11
-128,-16,12,6,25,7,3,-13
38,4,5,34,29,10,-2,-9
-2,-8,-32,-59,-12,-11,-7,-3
51,8,28,48,2,-38,-9,18
27,7,6,-1,27,45,0,-8
-49,-10,1,12,-16,-6,1,-27
-22,-6,-1,-2,-32,2,2,-13
21,-2,-14,-38,-17,-62,-13,13
43,2,-14,6,-45,49,13,1
-18,2,4,-9,-27,0,-2,-14
-48,23,1,18,22,-6,5,6
-58,-4,-5,-16,19,-24,-14,-9
-2,-15,-5,14,46,-79,-24,-16
20,2,-6,-13,-26,117,30,13
12,5,6,-5,-51,-8,-7,5
3,-4,-9,-1,20,-10,-5,-6
-4,0,-4,27,52,49,10,-2
-4,-4,8,-9,-34,15,-7,0
73,7,-2,-12,30,-21,-7,8
26,1,1,10,-12,-6,-7,4
-115,-15,3,5,27,7,3,-12
4,-6,-28,-28,-73,-6,0,-5
71,-1,-21,-11,-32,-29,-7,13
-11,10,24,-3,-4,-36,-3,16
-20,-2,-5,-11,-15,-32,0,-23
10,-3,-8,-26,27,50,-1,-23
13,-5,-7,-8,23,-7,-8,9
31,7,2,1,10,-12,-2,-17
-100,-12,5,-3,-29,-25,-12,-18
-18,-4,7,35,38,-57,-6,8
10,0,-11,-17,-69,78,14,5
-3,-4,-2,-9,-6,4,7,-1
11,1,1,-10,23,-11,-7,-7
32,-4,4,37,-18,-19,-6,7
-1,0,0,-22,-17,-12,-4,-3
0,-5,-8,-14,7,-6,-2,-2
5,1,0,24,51,-14,2,0
24,3,10,9,-25,11,0,6
-46,-22,-20,-33,-40,-30,-6,-7
-30,17,5,26,2,-36,-7,-1
18,-6,-14,-32,-13,-25,-15,-5
0,-7,-2,13,46,95,11,-5
-15,2,-3,-39,-43,24,3,-4
45,9,14,-1,-7,20,2,20
98,-2,-18,-26,17,-19,5,27
-23,-7,9,-3,-24,-18,-16,-23
-64,-7,-21,-1,17,-13,-7,-26
29,0,-1,-6,-12,-5,-4,4
55,13,15,18,17,-3,0,8
-72,-12,-3,7,7,-1,2,-1
34,-1,3,2,4,-2,3,11
7,-3,-2,-10,-10,-3,-1,2
-1,1,-6,5,-17,0,-3,-7
7,-2,-1,-20,-5,2,0,-2
2,-1,-4,-1,38,4,-1,-2
2,1,-3,5,-54,-27,0,3
43,11,6,-45,35,-3,-1,10
-128,-6,15,62,-25,14,0,-16
-4,-18,-9,21,-8,80,7,-3
6,-4,-9,-27,9,-3,-5,-12
56,8,1,-2,-11,-28,-5,16
8,-1,-4,-10,16,-3,-6,-10
-28,3,4,0,0,1,-3,-12
4,-8,-3,-14,1,-3,1,-1
4,-6,1,-4,-7,-4,1,2
4,0,-2,4,-1,-2,-1,3
-1,0,3,-25,-26,-82,-14,-6
-16,-12,-1,58,54,-53,-15,0
93,-2,-11,-64,-66,127,44,52
40,17,9,10,-61,3,9,-5
-66,11,2,8,65,-36,-33,-56
-128,-15,-8,3,33,-31,-14,3
14,-4,4,-11,-17,-17,-6,0
-30,-13,4,-14,-12,-11,-1,-18
33,-1,-14,0,-16,-11,2,9
20,3,-1,-2,-23,-6,3,6
9,2,-2,-26,25,-4,3,9
3,2,-3,13,-7,31,4,1
-5,-5,0,11,49,3,-6,1
-2,-2,14,18,-35,36,3,-4
-6,-1,-5,-9,-17,-15,-2,-2
-1,0,3,7,24,9,1,-1
-4,-1,2,-25,-23,-1,0,-4
-4,-2,-1,43,-24,-9,-1,-2
13,-13,-2,-17,-12,-20,0,1
2,-8,-17,3,55,-60,-13,7
-4,33,12,-27,-31,127,36,16
36,31,17,6,-29,12,-11,19
104,-1,-9,-17,13,-15,-16,-43
-128,-25,-23,-8,14,-30,-5,-30
102,-19,16,19,13,-9,-5,-18
8,-9,0,8,-2,-15,-1,-2
-3,0,-2,10,-20,-5,0,6
33,0,4,-18,-23,-14,-4,3
18,6,9,9,-1,-47,-4,6
-13,1,-1,28,109,27,-9,2
25,3,-10,-11,10,80,27,21
-9,3,6,23,-10,59,12,7
-18,4,-1,14,-25,-56,-13,-7
-19,-7,-7,-25,-23,-11,-7,-7
-11,-1,-6,10,-36,4,-4,-4
-10,-2,2,-1,33,-15,-4,5
-14,-2,2,2,4,-31,-6,-10
-5,2,-8,-10,26,19,0,-4
6,-1,11,26,2,-39,-1,2
24,-2,-20,-6,-48,4,1,-6
-75,-12,-1,-14,35,53,7,-4
11,-1,14,15,11,-9,-3,5
-1,-2,1,8,-21,-12,-6,-5
-1,-3,0,-16,-25,-11,-6,-5
6,18,-11,-1,37,-13,-3,-2
-3,4,13,8,8,7,0,-2
19,1,-9,-15,-18,-7,-3,5
-5,-12,-31,-16,5,-20,-2,9
28,-3,7,6,-29,-37,-16,11
70,16,4,-10,34,68,14,4
-128,-14,15,-7,-39,81,10,-50
20,-19,11,3,11,-10,-5,-17
-53,-9,-2,16,-3,-24,-8,-19
29,3,1,-3,-21,-12,-1,7
21,3,-8,-11,-18,-12,-3,8
7,-2,-10,-13,-10,-2,0,4
10,5,10,-5,65,-58,-15,6
26,5,-6,38,-41,72,27,14
-22,-5,-2,-17,74,89,9,-8
-3,1,4,-2,-4,-12,-7,-11
5,-7,-23,-19,-21,-43,-6,17
-26,-5,2,15,-10,-27,-12,-24
-16,-2,-3,-1,23,11,-11,-5
-5,-4,-5,-8,-8,10,-1,0
3,-1,-3,-5,-7,6,3,0
1,2,4,0,11,-6,4,-2
0,-2,6,23,-19,-9,-1,1
9,-4,-1,-18,0,-12,-3,3
11,-1,-16,-21,-33,7,-2,0
-19,-10,-5,28,83,-20,-6,-12
-7,1,9,13,-55,-24,4,-5
27,3,-19,-37,-3,18,-1,25
67,20,-6,-14,-41,-11,-8,-5
21,0,-6,16,34,29,-7,-33
-109,-22,-1,-3,36,9,-2,-27
30,-10,-22,-7,-21,-13,-2,-13
14,7,1,-3,-28,-128,-17,2
69,3,7,-8,7,80,16,19
8,4,2,-13,11,127,14,17
4,-11,-12,-42,-38,-35,-11,-13
-1,-1,3,1,3,-30,-8,-4
2,-6,-15,0,3,-21,-3,-1
-2,-2,0,-4,24,-11,-2,0
-5,5,13,0,-17,-15,-1,-3
-4,-3,-5,-4,-1,-4,1,-6
-5,-2,1,-1,-6,0,-3,-2
-2,0,-5,-7,-1,1,0,-1
-4,-2,-6,-16,-36,-35,-13,-2
51,-4,-3,32,75,-3,-5,13
38,-2,14,19,15,53,16,15
-59,12,13,-5,-9,9,-7,-8
-57,13,10,-58,-111,15,3,-28
39,-6,-10,-23,-27,-51,-13,-13
20,-12,-29,25,31,11,4,10
6,-7,-5,15,-7,-5,-1,-13
32,-5,1,-7,31,-14,-5,0
-40,-5,-8,-4,16,-13,-8,1
8,-2,11,22,-25,5,1,3
8,1,5,-7,5,-13,4,1
2,5,7,14,-14,5,3,0
5,-3,-6,6,-5,-14,0,4
-14,-3,14,38,28,-16,-8,-10
-6,-2,-2,-14,22,4,-2,0
1,4,-11,-21,-23,10,0,21
29,0,1,4,8,40,6,1
-19,-14,7,-5,-45,-67,-15,-24
-9,-2,-20,-36,16,61,8,-9
63,10,3,20,-5,15,1,8
-114,-22,5,-22,36,-51,-5,-12
23,-5,-9,10,-8,23,-11,-12
15,8,-2,-27,-66,-5,11,7
9,4,1,3,44,-5,3,1
7,2,2,5,1,-10,0,8
18,1,-2,14,15,-5,-3,9
4,-4,-8,-3,-22,-2,0,3
2,-4,0,-5,15,-2,1,6
-8,5,9,2,-7,0,0,-1
-6,-6,-14,-13,16,-23,-10,-7
-12,-9,11,-14,42,-23,-17,-10
1,12,13,47,-25,93,20,0
2,-1,-6,6,-69,-15,-2,-1
39,1,-7,26,12,-10,-9,5
-53,-22,-4,-53,10,-11,-6,-21
50,8,7,-2,2,-7,-1,13
-74,-9,-16,35,-1,-53,-7,-8
-23,-7,12,-22,-2,39,-3,-32
36,-2,-4,-10,19,22,-8,7
10,0,-2,-2,-29,1,-7,-5
13,3,14,-27,-21,-33,-1,7
3,0,10,59,40,-25,1,2
27,2,-5,-5,-26,74,0,-11
21,0,-18,-40,-13,-1,2,11
-37,-5,0,12,-20,7,1,-12
-61,-4,5,-18,7,-6,-2,-7
30,8,6,20,36,-7,0,-15
-70,-19,6,5,20,-7,-5,-15
8,-7,-4,-22,0,-17,0,16
-16,-7,-23,-7,-103,-32,-8,-5
53,14,16,20,8,3,-5,5
-24,-2,6,19,43,17,11,5
29,-5,4,38,74,-35,-1,8
-33,-15,-32,-61,17,78,3,-4
40,17,3,-38,-63,36,11,3
-54,12,6,-26,34,-9,-6,-1
3,-4,-4,10,-77,-35,-10,-10
14,0,-6,4,0,-12,-3,0
-21,-5,-12,-1,17,-9,-8,-2
0,-8,-6,-15,-10,-19,-6,-8
5,-6,-4,-5,-25,-25,-4,-7
5,3,14,33,80,37,6,7
1,-2,-13,-16,-5,13,0,3
9,-1,-4,-10,-30,-19,3,1
-24,-10,13,22,19,-2,-10,-6
-7,-3,-8,-39,-14,25,5,-4
53,11,24,13,-42,1,-1,11
-49,2,-9,-9,23,-13,-1,-9
-46,-14,-5,-22,-10,-47,-7,-33
9,1,1,-4,-30,21,-4,-2
44,4,-9,12,24,49,3,4
38,1,-14,1,64,9,4,8
-55,-13,-1,34,10,3,-7,-5
29,-2,5,-13,-23,-11,-3,1
22,11,3,-13,15,-2,0,6
-48,-12,-1,13,-40,-34,-2,-1
5,-5,-7,-26,-5,28,6,11
-19,-1,6,-3,-21,22,-2,-16
37,-6,5,14,6,-20,-9,-14
25,4,5,-12,-4,-13,3,24
-25,5,-12,-27,-13,-33,-15,-20
-20,-8,-15,-16,-54,-27,-8,-8
65,12,3,5,43,31,2,5
-128,-13,7,15,51,108,15,-4
54,-5,6,-16,-9,-11,-6,-5
68,8,-2,37,-7,-44,-4,6
-89,-16,5,-18,-7,6,-3,-18
14,-1,2,-2,5,-14,-8,-14
15,-4,-13,-13,-28,-20,0,9
-1,2,1,-29,-25,-24,-8,0
-3,-8,-15,21,9,-33,-3,-1
0,-1,-2,-9,22,55,6,1
-3,2,7,5,1,-10,1,2
2,3,-7,-1,11,-8,2,2
-5,-1,2,-19,-48,-30,-2,-1
-5,4,8,39,-8,-10,-6,-3
-4,-7,-25,-92,-5,20,4,-4
-9,-14,3,12,-24,-4,-1,0
-5,0,-10,-18,-18,-82,-2,3
62,14,7,31,26,80,9,10
-79,-1,5,3,-4,23,-5,-3
103,5,-4,-3,44,-17,-10,12
-128,-17,-15,-8,-31,-9,-6,-47
46,-8,-5,-27,-28,-26,-9,-23
20,-2,7,18,17,-6,0,-4
22,0,7,13,31,7,-2,9
23,3,8,35,10,-12,-2,10
12,1,10,23,-7,-18,5,9
3,-1,-11,-21,-11,-31,-1,2
-7,-3,-3,5,0,66,5,3
0,-3,-9,23,4,-45,-5,0
4,-2,-5,-2,-4,119,8,2
-17,6,-2,-20,6,-27,-15,-13
-1,0,-2,4,1,-11,-3,0
-4,-2,0,-23,-6,-23,-3,0
-4,7,8,16,27,-7,2,1
-7,-6,-15,14,-34,-20,-4,-1
-9,-13,-13,-31,-5,-20,-4,-3
30,3,9,1,34,24,6,6
40,15,3,12,-29,59,18,12
-4,-7,4,-20,13,-10,-12,-9
-54,-7,1,3,26,-25,-10,-26
4,-12,-20,18,-8,-9,-13,-10
34,11,5,-7,-20,15,7,14
9,2,-1,-4,9,6,5,-2
1,-4,-5,-14,-17,-8,0,-5
5,-1,1,17,8,-6,-2,3
5,2,6,27,49,-50,-9,4
-20,-19,-11,-42,-27,46,14,2
29,27,17,26,-80,-8,4,19
-49,10,-18,6,58,35,6,-8
-10,-12,6,-9,-5,-17,-25,-49
47,-9,-14,-2,-7,-25,-19,-7
-5,-10,1,-5,-4,-15,-3,13
0,-2,2,7,12,1,6,-1
-18,-4,-1,-5,-13,-22,-3,-9
11,1,4,21,-20,-16,-2,1
11,-1,1,17,41,12,-2,6
6,-1,0,11,30,13,3,2
5,1,-2,-20,-29,-25,3,10
-3,-2,-1,-19,-34,30,2,-2
-3,3,9,-14,-7,11,-1,-5
-10,-2,-7,9,7,-3,-6,-4
-5,-9,1,-5,-2,-1,-5,-1
-2,-8,-10,2,-3,-7,-2,-4
1,5,-10,4,-7,-7,0,-3
-2,-7,4,-19,1,-38,-8,-8
84,10,16,18,-6,-1,-9,11
1,13,9,-41,-44,-59,-2,3
-75,-16,-12,87,53,37,4,-3
42,6,-6,-46,-35,25,11,18
-12,-16,-6,2,-79,10,-9,-11
-95,-31,0,-9,16,-38,-26,-43
15,1,-1,-2,27,-16,-8,-9
6,1,3,15,14,-15,-4,4
2,-3,-5,-16,-5,-8,3,7
19,-3,-6,2,-12,-11,0,13
-6,0,10,2,-14,-30,-12,-2
-2,7,14,34,2,-11,1,11
-18,5,-2,-31,25,74,11,-8
24,-3,-5,0,1,-8,-7,-13
23,-8,-9,-7,-19,-26,-8,-3
-63,-6,-6,4,35,2,-9,-5
0,-6,1,-8,-7,-6,-3,1
2,4,6,-23,-36,1,-1,3
1,-1,-4,13,2,-4,-1,0
1,1,-1,-4,8,-1,-3,1
4,-1,-11,-17,-26,-6,2,4
-1,0,-1,-22,19,-17,4,8
40,-6,11,66,81,-11,4,4
-47,1,1,-2,-104,76,5,-19
34,-4,-16,-58,-26,-3,-16,-6
8,-17,-5,26,48,-31,-8,-2
12,-2,-7,-4,34,1,-5,-4
-46,15,-5,-6,-30,20,9,-4
4,3,4,3,50,29,2,-1
5,-7,3,-8,-57,-35,3,3
2,-1,5,-4,-20,-16,-1,1
81,9,-7,-16,-10,-7,1,27
12,2,9,17,28,10,11,14
-63,-16,-11,-5,22,17,-10,-32
-26,-7,-12,9,21,11,-9,-10
35,0,5,-15,-25,21,2,-5
-2,7,-4,-8,27,45,-2,-4
12,-2,-7,-6,1,-16,-3,-4
39,-5,-4,-4,3,-81,-15,19
109,18,24,11,37,107,8,25
-128,-18,-10,-29,-88,-21,0,-26
27,1,5,23,41,-6,1,1
13,0,20,11,-41,-14,1,3
-13,3,-1,13,21,-25,-9,-12
-7,2,-4,-15,-1,19,2,2
1,-8,-8,31,-49,-33,-4,-1
2,-4,18,5,50,41,10,11
-1,1,-8,10,-15,-31,-1,3
18,13,6,-3,-7,-23,-9,-2
17,6,-3,-13,-9,34,-3,-7
18,13,6,-3,-7,-23,-9,-2
17,6,-3,-13,-9,34,-3,-7
-70,-1,-1,3,12,8,0,-4
16,-4,7,5,13,4,2,10
